# Simple Text Format
# Sampling Rate (Hz):= 2000.0
# Resolution:= 12
# Units:= Volts
# Labels:= PCG	ECG
1.38366	1.87824
1.38205	1.87824
1.38366	1.87582
1.38527	1.87502
1.38366	1.87582
1.38366	1.87421
1.38527	1.87260
1.38769	1.87421
1.39092	1.87341
1.38769	1.87824
1.38850	1.87905
1.38930	1.88308
1.38850	1.88549
1.39092	1.88711
1.38850	1.89436
1.39011	1.89919
1.38850	1.90403
1.38850	1.90484
1.38850	1.91128
1.38769	1.91612
1.38850	1.91692
1.39011	1.92176
1.38689	1.92659
1.38689	1.92579
1.38447	1.92982
1.38286	1.92982
1.38366	1.93143
1.38366	1.93546
1.38447	1.93143
1.38447	1.93143
1.38125	1.92982
1.38286	1.92821
1.38366	1.92821
1.38527	1.92256
1.38286	1.92176
1.38366	1.92176
1.38527	1.91692
1.38527	1.91692
1.38930	1.91289
1.38850	1.91289
1.38689	1.90645
1.38447	1.90484
1.38769	1.90484
1.39011	1.90403
1.38769	1.90403
1.38527	1.90484
1.38769	1.90484
1.38689	1.90564
1.39011	1.90645
1.38527	1.91128
1.38527	1.91531
1.38447	1.91692
1.38366	1.91934
1.38769	1.92418
1.38366	1.92982
1.38366	1.93304
1.38447	1.93707
1.38689	1.94432
1.39011	1.94755
1.38769	1.95399
1.38527	1.95722
1.38769	1.96286
1.38769	1.96447
1.38769	1.96608
1.38366	1.97172
1.38205	1.97253
1.38286	1.97414
1.38044	1.97575
1.38447	1.97414
1.38205	1.97253
1.38205	1.97333
1.38527	1.97092
1.38689	1.96930
1.39011	1.96769
1.38769	1.96527
1.38930	1.96608
1.38769	1.96366
1.39011	1.96125
1.39172	1.95722
1.39253	1.95560
1.39253	1.95560
1.39333	1.95560
1.39414	1.95560
1.39817	1.95560
1.39575	1.95560
1.39656	1.95560
1.39656	1.95802
1.39414	1.96044
1.39978	1.96447
1.39736	1.96850
1.39575	1.97172
1.39656	1.97736
1.39817	1.98139
1.39736	1.98381
1.39656	1.99267
1.39817	1.99993
1.39656	2.00557
1.39656	2.00879
1.39656	2.01524
1.39414	2.02007
1.39253	2.02652
1.39333	2.02894
1.39333	2.03297
1.39495	2.03538
1.39414	2.04022
1.39656	2.04183
1.39736	2.04344
1.40059	2.04425
1.40300	2.04425
1.39978	2.04425
1.39817	2.04183
1.40059	2.03861
1.39736	2.03458
1.40059	2.03297
1.39817	2.03297
1.39736	2.02733
1.39495	2.02088
1.39656	2.02007
1.39978	2.01443
1.39817	2.00960
1.39897	2.00718
1.40059	2.00718
1.39817	2.00476
1.39978	2.00154
1.39656	2.00315
1.39736	1.99912
1.39656	1.99832
1.39656	1.99832
1.39656	1.99993
1.39333	2.00315
1.39414	2.00476
1.39253	2.00718
1.39253	2.00879
1.39495	2.01282
1.39253	2.01604
1.39333	2.02007
1.39414	2.02733
1.39253	2.03216
1.39495	2.03297
1.39253	2.03700
1.39172	2.04344
1.39092	2.04425
1.38930	2.04022
1.39092	2.05070
1.38769	2.05311
1.38527	2.05392
1.38527	2.05714
1.38527	2.05795
1.38769	2.05311
1.38527	2.05070
1.38447	2.04828
1.38689	2.04505
1.38769	2.04344
1.38527	2.03700
1.38366	2.03297
1.38366	2.02894
1.38366	2.02410
1.38447	2.01927
1.38689	2.01524
1.38286	2.00879
1.38286	2.00396
1.38125	2.00637
1.38044	1.99670
1.37963	1.99429
1.37963	1.99429
1.37963	1.98542
1.37963	1.98542
1.37963	1.98542
1.38205	1.98139
1.37963	1.98139
1.38044	1.98059
1.38125	1.98139
1.38125	1.97897
1.38125	1.97897
1.38044	1.98059
1.38044	1.98059
1.38044	1.98059
1.38044	1.97656
1.38125	1.97897
1.38044	1.97897
1.38286	1.97575
1.38205	1.97333
1.38205	1.97253
1.38527	1.96689
1.38366	1.96527
1.38125	1.95883
1.38125	1.95560
1.38205	1.95077
1.38447	1.94271
1.38205	1.93465
1.38205	1.92740
1.38205	1.92015
1.38366	1.91289
1.38689	1.90403
1.38447	1.89516
1.38447	1.88711
1.38447	1.87744
1.38689	1.86696
1.38769	1.85971
1.38689	1.85245
1.38850	1.84359
1.39011	1.83392
1.39092	1.82747
1.39253	1.82183
1.39253	1.81538
1.39253	1.80974
1.39092	1.80571
1.39172	1.80088
1.39253	1.80007
1.39172	1.79604
1.39011	1.79201
1.39011	1.79201
1.38850	1.78637
1.39172	1.78557
1.38850	1.78637
1.39011	1.78557
1.39011	1.78557
1.38689	1.78073
1.39253	1.78073
1.39253	1.78396
1.39011	1.78396
1.39172	1.78315
1.39092	1.78234
1.39172	1.77912
1.38850	1.77751
1.38850	1.77590
1.38930	1.77267
1.38689	1.76945
1.38850	1.76623
1.38527	1.76300
1.38366	1.75172
1.38205	1.74850
1.38044	1.74608
1.38366	1.73722
1.38125	1.73158
1.38286	1.72593
1.38527	1.72110
1.38769	1.71465
1.39253	1.71062
1.39172	1.70659
1.39253	1.70095
1.39092	1.69692
1.39011	1.69370
1.39172	1.68886
1.38769	1.68564
1.38689	1.68484
1.38527	1.67919
1.38286	1.68000
1.38447	1.67758
1.38205	1.67597
1.38125	1.67839
1.37963	1.67919
1.38044	1.68081
1.38205	1.68242
1.38125	1.68484
1.38125	1.68564
1.38125	1.68725
1.38205	1.68886
1.38689	1.69370
1.38366	1.69692
1.38447	1.69370
1.38447	1.69692
1.38366	1.69773
1.38689	1.69773
1.38366	1.69773
1.38205	1.69612
1.38205	1.69692
1.38447	1.69209
1.38689	1.69370
1.38769	1.69048
1.38769	1.68967
1.39011	1.68403
1.39172	1.68000
1.39333	1.67436
1.39414	1.67436
1.39495	1.67194
1.39656	1.66711
1.39656	1.66469
1.40139	1.65744
1.39817	1.65824
1.40139	1.65824
1.40059	1.65421
1.40059	1.65099
1.40542	1.64696
1.40542	1.64857
1.40542	1.64777
1.40703	1.64777
1.40784	1.64696
1.41187	1.64696
1.40784	1.65179
1.41106	1.65099
1.41590	1.65663
1.41832	1.65824
1.42315	1.66308
1.42718	1.66469
1.43121	1.66952
1.43121	1.67114
1.43846	1.67436
1.44410	1.67919
1.45136	1.68242
1.46425	1.68725
1.48117	1.68725
1.49648	1.69209
1.51663	1.69289
1.53275	1.69370
1.54484	1.69370
1.55289	1.69289
1.56015	1.69048
1.56095	1.68725
1.55289	1.68564
1.53033	1.68242
1.49165	1.67839
1.44571	1.67355
1.39011	1.67114
1.32564	1.66630
1.26198	1.66147
1.20154	1.65824
1.15883	1.65663
1.12740	1.64696
1.11128	1.64535
1.10886	1.64051
1.11773	1.63568
1.13868	1.63165
1.16930	1.63084
1.20073	1.62762
1.24828	1.62520
1.29099	1.62440
1.33209	1.62601
1.37480	1.62440
1.40542	1.62923
1.44007	1.63004
1.46264	1.63326
1.48520	1.63407
1.50132	1.63568
1.51018	1.64454
1.51341	1.64615
1.51018	1.64696
1.50454	1.65502
1.48681	1.65663
1.48037	1.66066
1.46667	1.66791
1.45538	1.66711
1.44491	1.66791
1.44007	1.67033
1.43363	1.67194
1.43121	1.67194
1.42960	1.67114
1.42718	1.67194
1.42234	1.66952
1.41026	1.66872
1.40462	1.66308
1.39333	1.65985
1.38527	1.65744
1.37963	1.65341
1.37722	1.64777
1.37722	1.64615
1.37802	1.64374
1.37963	1.63810
1.38689	1.63084
1.38850	1.62762
1.39172	1.62601
1.39333	1.62278
1.39414	1.62117
1.39978	1.62037
1.39817	1.62037
1.39817	1.62037
1.40462	1.62037
1.40300	1.62037
1.40542	1.62278
1.40784	1.62117
1.41348	1.62278
1.41106	1.62842
1.41670	1.63326
1.41993	1.63568
1.42234	1.63810
1.42396	1.64454
1.42476	1.64696
1.42718	1.65018
1.42879	1.65744
1.42637	1.65824
1.42879	1.66147
1.42637	1.66469
1.42637	1.66711
1.42396	1.66630
1.41751	1.66791
1.41106	1.66711
1.40703	1.67033
1.40059	1.66952
1.39414	1.66469
1.38447	1.66308
1.37963	1.65905
1.36996	1.65905
1.36432	1.65663
1.36271	1.64938
1.35546	1.64696
1.35626	1.64615
1.35465	1.64374
1.35626	1.63810
1.36352	1.63487
1.36432	1.63245
1.36835	1.62842
1.37238	1.62762
1.37480	1.62520
1.37802	1.62278
1.37641	1.62278
1.37722	1.62359
1.37480	1.62440
1.37158	1.62440
1.37158	1.62762
1.36755	1.63084
1.36835	1.63245
1.36916	1.63407
1.36916	1.63729
1.37077	1.64132
1.37399	1.64535
1.37319	1.64615
1.37399	1.65018
1.37399	1.65421
1.37722	1.65744
1.37560	1.65985
1.37399	1.66308
1.37641	1.66791
1.37722	1.66791
1.37722	1.66791
1.37641	1.67033
1.37722	1.66952
1.37883	1.66952
1.37883	1.66791
1.37883	1.66872
1.37802	1.66469
1.37963	1.66469
1.37963	1.66147
1.37963	1.65905
1.38044	1.65502
1.37963	1.65341
1.37963	1.65018
1.38125	1.64615
1.38125	1.64615
1.38286	1.64293
1.38044	1.64051
1.38286	1.63729
1.38286	1.63568
1.38286	1.63245
1.38447	1.63245
1.38366	1.63245
1.38205	1.63245
1.38205	1.63084
1.38125	1.63326
1.38366	1.63245
1.38205	1.63568
1.38044	1.63487
1.38044	1.64051
1.37963	1.64212
1.38044	1.64615
1.37963	1.64857
1.37883	1.65018
1.37963	1.65179
1.37802	1.65824
1.37963	1.66066
1.37883	1.66469
1.37963	1.66630
1.37963	1.67194
1.37963	1.67114
1.37963	1.67114
1.37963	1.67275
1.38044	1.67194
1.38205	1.67275
1.38447	1.67194
1.39011	1.66952
1.38769	1.66711
1.39011	1.66791
1.38850	1.66630
1.39011	1.65985
1.39253	1.65905
1.39092	1.65663
1.38850	1.65260
1.38850	1.64777
1.38930	1.64615
1.39092	1.64535
1.38850	1.64132
1.38850	1.63810
1.38527	1.63568
1.38850	1.63568
1.38850	1.63245
1.38769	1.63084
1.38850	1.63165
1.38689	1.63326
1.38850	1.63245
1.39172	1.63165
1.39092	1.63729
1.39011	1.63729
1.39172	1.63810
1.39253	1.64374
1.39253	1.64374
1.39172	1.64696
1.39092	1.65099
1.39092	1.65502
1.39092	1.65744
1.39253	1.65824
1.39011	1.66066
1.39172	1.66388
1.39172	1.66630
1.39092	1.66952
1.39172	1.66791
1.38930	1.67114
1.39172	1.66952
1.39092	1.66952
1.39172	1.66791
1.39253	1.66388
1.39253	1.66469
1.39172	1.66147
1.39253	1.65824
1.39333	1.65824
1.39333	1.65341
1.39333	1.65099
1.39414	1.64615
1.39253	1.64615
1.39253	1.64212
1.39495	1.63729
1.39414	1.63568
1.39253	1.63407
1.39253	1.63165
1.39253	1.63084
1.39333	1.62923
1.39253	1.62762
1.39253	1.63004
1.39253	1.62923
1.39253	1.62923
1.39495	1.63084
1.39333	1.63326
1.39414	1.63326
1.39414	1.63648
1.39495	1.63890
1.39656	1.64374
1.39656	1.64615
1.39495	1.64615
1.39495	1.65099
1.39333	1.65663
1.39495	1.65663
1.39172	1.65905
1.39172	1.66227
1.38850	1.66388
1.38850	1.66388
1.39092	1.66711
1.38689	1.66952
1.38527	1.66711
1.38527	1.66791
1.38527	1.66549
1.38689	1.66388
1.38366	1.66308
1.38608	1.66227
1.38527	1.65824
1.38769	1.65744
1.38527	1.65099
1.38205	1.64938
1.38366	1.64777
1.38205	1.64615
1.38125	1.64374
1.38447	1.64051
1.38044	1.63487
1.38125	1.63407
1.38044	1.63245
1.37963	1.63245
1.38205	1.62842
1.38044	1.63084
1.38044	1.62923
1.38125	1.63165
1.38125	1.63165
1.38366	1.63165
1.38447	1.63326
1.38044	1.63326
1.38205	1.63729
1.38286	1.64051
1.38527	1.64374
1.38769	1.64615
1.38447	1.65099
1.38447	1.65502
1.38608	1.65099
1.38447	1.65341
1.38850	1.65985
1.39011	1.65985
1.38850	1.66308
1.39011	1.66388
1.39092	1.66388
1.38850	1.66711
1.38850	1.66711
1.38850	1.66388
1.38689	1.66711
1.39253	1.66066
1.39172	1.65985
1.39172	1.65905
1.39333	1.65582
1.39253	1.65502
1.39495	1.64777
1.39092	1.64615
1.39253	1.64535
1.39414	1.64132
1.40059	1.63729
1.39817	1.63326
1.39333	1.63084
1.39495	1.62923
1.39575	1.62601
1.39333	1.62440
1.39333	1.62359
1.39253	1.62198
1.39495	1.62117
1.39736	1.62117
1.39736	1.62440
1.40139	1.62278
1.40220	1.62842
1.40139	1.62923
1.40139	1.63245
1.40300	1.63407
1.40381	1.63487
1.40139	1.64051
1.39978	1.64374
1.39978	1.64615
1.39817	1.65018
1.40139	1.65179
1.39978	1.65582
1.39817	1.65421
1.39817	1.65905
1.39817	1.66227
1.39817	1.66066
1.39575	1.66227
1.39414	1.66147
1.39333	1.66227
1.39253	1.66147
1.39172	1.66066
1.39011	1.65905
1.39011	1.65905
1.38930	1.65663
1.38930	1.65421
1.39253	1.64696
1.39011	1.65018
1.39011	1.64535
1.39172	1.64212
1.39172	1.64454
1.39011	1.63568
1.38608	1.63568
1.38447	1.63326
1.38527	1.63084
1.38366	1.63165
1.38608	1.62842
1.38205	1.62923
1.38447	1.62762
1.38447	1.62923
1.38447	1.63084
1.38689	1.63004
1.38286	1.63326
1.38366	1.63568
1.38205	1.63810
1.38366	1.63810
1.38205	1.64212
1.38125	1.64615
1.38205	1.64615
1.38366	1.65018
1.38366	1.65582
1.38769	1.65582
1.38447	1.65985
1.38527	1.66066
1.38527	1.66147
1.38689	1.66630
1.38850	1.66388
1.38930	1.66469
1.38689	1.66630
1.38689	1.66388
1.38850	1.66469
1.39172	1.66308
1.39092	1.66147
1.39011	1.66066
1.39092	1.65824
1.39253	1.65824
1.39333	1.65018
1.39253	1.65018
1.39414	1.64615
1.39253	1.64374
1.39495	1.64212
1.39495	1.63568
1.39333	1.63568
1.39414	1.63568
1.39253	1.63245
1.39253	1.62923
1.39253	1.63084
1.39253	1.63245
1.39333	1.62842
1.39333	1.63004
1.39333	1.63165
1.39495	1.62923
1.39414	1.63487
1.39333	1.63568
1.39333	1.63648
1.39253	1.64051
1.39333	1.64374
1.39253	1.64615
1.39333	1.64696
1.39333	1.65099
1.39414	1.65421
1.39495	1.65663
1.39495	1.65824
1.39495	1.66147
1.39495	1.66388
1.39333	1.66791
1.39495	1.66630
1.39575	1.66630
1.39656	1.66872
1.39575	1.66791
1.39656	1.66630
1.39575	1.66469
1.39575	1.66227
1.39495	1.66147
1.39656	1.65905
1.39333	1.65905
1.39414	1.65502
1.39333	1.65502
1.39333	1.65018
1.39495	1.64696
1.39656	1.64535
1.39817	1.64374
1.39817	1.64212
1.39978	1.63890
1.40139	1.63487
1.39817	1.63487
1.40059	1.63407
1.40059	1.63568
1.39897	1.63407
1.39817	1.63568
1.39736	1.63487
1.39736	1.63648
1.39978	1.63729
1.39817	1.63890
1.39736	1.64454
1.39495	1.64535
1.39575	1.64615
1.39575	1.64938
1.39736	1.65341
1.39656	1.65582
1.39656	1.65985
1.39817	1.66066
1.39736	1.66791
1.39495	1.66630
1.39656	1.66952
1.39414	1.67275
1.39333	1.67597
1.39253	1.67194
1.39172	1.67275
1.39172	1.67436
1.39092	1.67436
1.39253	1.67194
1.38850	1.67194
1.38769	1.67194
1.38850	1.66630
1.38527	1.66308
1.39172	1.65985
1.39253	1.65905
1.39253	1.65502
1.39495	1.65099
1.39575	1.64696
1.39736	1.64615
1.39656	1.64615
1.39575	1.64212
1.39656	1.64132
1.39495	1.63729
1.40059	1.63648
1.39656	1.63729
1.39656	1.63729
1.39817	1.63810
1.39978	1.63648
1.40300	1.63810
1.40139	1.63971
1.40139	1.64374
1.40300	1.64615
1.40139	1.64696
1.40542	1.64857
1.40462	1.65179
1.40300	1.65985
1.40462	1.66147
1.40300	1.66630
1.40462	1.67033
1.40300	1.67194
1.40300	1.67194
1.40139	1.67355
1.39978	1.67919
1.40139	1.67758
1.39736	1.68081
1.39817	1.68161
1.39817	1.68242
1.39656	1.68000
1.39495	1.67919
1.39495	1.67597
1.39333	1.67678
1.39253	1.67355
1.39253	1.67194
1.39172	1.67194
1.38850	1.66872
1.38850	1.66469
1.38769	1.66066
1.38769	1.65744
1.39011	1.65744
1.38769	1.65582
1.38930	1.65421
1.39011	1.65179
1.39172	1.64857
1.39172	1.64938
1.39253	1.64857
1.39172	1.64777
1.39253	1.64696
1.39333	1.64777
1.39414	1.64857
1.39253	1.65421
1.39253	1.65582
1.39253	1.65502
1.39172	1.65905
1.39414	1.66066
1.39172	1.66630
1.39253	1.66872
1.39333	1.67114
1.39253	1.67275
1.39253	1.67597
1.39253	1.68000
1.39172	1.68403
1.39172	1.68484
1.39253	1.68725
1.39253	1.68725
1.39253	1.69048
1.39253	1.69209
1.39253	1.69289
1.39253	1.69209
1.39253	1.68725
1.39253	1.68886
1.39253	1.68645
1.39333	1.68242
1.39253	1.68403
1.39253	1.67919
1.39333	1.67597
1.39253	1.67355
1.39172	1.67194
1.39253	1.66952
1.39333	1.66711
1.39253	1.66388
1.39011	1.66308
1.39011	1.66147
1.38769	1.65985
1.38850	1.65824
1.38850	1.65824
1.38850	1.65905
1.38850	1.65824
1.39011	1.65905
1.39253	1.65824
1.39092	1.65905
1.39172	1.66066
1.39092	1.65905
1.38930	1.66308
1.39253	1.66630
1.39011	1.66952
1.39172	1.67275
1.39333	1.67275
1.39333	1.67597
1.39978	1.67516
1.39736	1.68322
1.39817	1.68242
1.39656	1.68564
1.39656	1.68484
1.39736	1.68564
1.39575	1.68564
1.39414	1.68645
1.39333	1.68806
1.39414	1.68645
1.39656	1.68484
1.39495	1.68484
1.39414	1.68242
1.39575	1.68242
1.39414	1.67919
1.39495	1.67597
1.39414	1.67355
1.39414	1.67194
1.39253	1.66791
1.39253	1.66952
1.39656	1.66469
1.39253	1.66388
1.39092	1.66227
1.39011	1.66147
1.39011	1.65985
1.39092	1.65985
1.38527	1.66147
1.38527	1.66066
1.38689	1.66066
1.38527	1.66227
1.39092	1.66308
1.38850	1.66630
1.38850	1.66952
1.39011	1.67194
1.38527	1.67275
1.38689	1.67516
1.38527	1.68081
1.38447	1.68403
1.38527	1.68484
1.38689	1.68967
1.38850	1.69289
1.38850	1.69612
1.39011	1.69773
1.39011	1.69773
1.39092	1.69853
1.39092	1.70015
1.39011	1.70176
1.39092	1.70095
1.39092	1.70337
1.39253	1.70176
1.39253	1.70095
1.39253	1.69934
1.39172	1.69773
1.39011	1.69773
1.38930	1.69773
1.39092	1.69289
1.39011	1.69048
1.38689	1.68725
1.39092	1.68564
1.39092	1.68725
1.39333	1.68161
1.39253	1.68322
1.39172	1.68161
1.39092	1.67678
1.39011	1.68081
1.38930	1.68000
1.38527	1.68000
1.38366	1.68403
1.38366	1.68403
1.38205	1.68564
1.38850	1.68725
1.38769	1.69289
1.38527	1.69692
1.38769	1.69773
1.39092	1.70256
1.39172	1.70498
1.39011	1.70982
1.39253	1.71304
1.39172	1.72110
1.39172	1.72190
1.39414	1.72513
1.39495	1.72916
1.39253	1.73641
1.39495	1.74044
1.39333	1.74205
1.39253	1.73883
1.39495	1.74689
1.39736	1.74608
1.39656	1.74689
1.39575	1.74689
1.39817	1.74125
1.39333	1.74447
1.39172	1.73883
1.39092	1.73802
1.39011	1.73319
1.39092	1.72916
1.38850	1.72593
1.38930	1.72593
1.38930	1.72352
1.39011	1.71949
1.39253	1.71465
1.39011	1.71143
1.38930	1.70982
1.38930	1.70498
1.38769	1.70337
1.38850	1.69934
1.38527	1.69934
1.38689	1.69773
1.38527	1.69692
1.38850	1.69773
1.38850	1.69773
1.38366	1.69773
1.38366	1.69773
1.38205	1.69853
1.38286	1.70176
1.38286	1.70498
1.38205	1.70821
1.38044	1.71062
1.38125	1.71143
1.38205	1.71546
1.38527	1.71788
1.38447	1.72110
1.38447	1.72352
1.38447	1.72352
1.38366	1.72513
1.38527	1.72593
1.38527	1.72996
1.38205	1.72755
1.38125	1.72755
1.38125	1.72755
1.38366	1.72513
1.38447	1.72352
1.38447	1.72352
1.38527	1.72190
1.38527	1.71868
1.38527	1.71143
1.38527	1.71062
1.38850	1.70821
1.38850	1.70498
1.38689	1.70095
1.39172	1.69773
1.39011	1.69692
1.39011	1.69531
1.39172	1.69289
1.39092	1.69209
1.39253	1.68886
1.39011	1.68645
1.39092	1.68725
1.39253	1.68886
1.39011	1.68967
1.39011	1.68967
1.38850	1.68967
1.38527	1.69370
1.38527	1.69692
1.38527	1.69773
1.38769	1.69773
1.38527	1.70176
1.38527	1.70659
1.38689	1.70821
1.38527	1.71062
1.38850	1.71143
1.38769	1.71546
1.38527	1.71546
1.38366	1.72029
1.38447	1.72029
1.38608	1.71949
1.38447	1.72190
1.38366	1.71868
1.38527	1.72110
1.38769	1.71707
1.38850	1.71465
1.38850	1.71304
1.38689	1.71062
1.39011	1.70659
1.39092	1.70337
1.39172	1.69853
1.39172	1.69773
1.39092	1.69451
1.39172	1.68564
1.39253	1.68322
1.39172	1.68000
1.39011	1.67597
1.38769	1.67275
1.38930	1.67194
1.39092	1.67194
1.39253	1.66791
1.39172	1.66791
1.39172	1.66711
1.39253	1.66791
1.39011	1.66952
1.39253	1.66952
1.39092	1.67114
1.39172	1.67194
1.39092	1.67355
1.39172	1.67597
1.39172	1.68081
1.39011	1.68242
1.38850	1.68484
1.38689	1.68967
1.38527	1.69289
1.38689	1.69692
1.38447	1.70015
1.39011	1.69934
1.38689	1.70337
1.38527	1.70821
1.38930	1.70659
1.38447	1.71062
1.38527	1.71062
1.38366	1.70982
1.38286	1.70901
1.38447	1.70659
1.38366	1.70579
1.38447	1.70176
1.38447	1.70176
1.38769	1.69853
1.39092	1.69531
1.39253	1.69370
1.39172	1.68967
1.39495	1.68403
1.39414	1.67919
1.39333	1.67919
1.39253	1.67678
1.39414	1.67436
1.39253	1.67194
1.39253	1.67194
1.39253	1.67114
1.39092	1.67114
1.39011	1.67033
1.39092	1.67114
1.39011	1.67194
1.39253	1.67194
1.39172	1.67436
1.39172	1.67597
1.39092	1.67919
1.38850	1.68242
1.39092	1.68645
1.38850	1.68967
1.38769	1.69531
1.38769	1.69773
1.39011	1.69934
1.39011	1.70337
1.38769	1.70740
1.38769	1.71062
1.38689	1.71062
1.38769	1.71304
1.38850	1.71304
1.38769	1.71465
1.38447	1.71546
1.38366	1.71546
1.38527	1.71546
1.38527	1.71304
1.38366	1.71143
1.38447	1.71062
1.38527	1.70821
1.38527	1.70579
1.39011	1.70095
1.39092	1.69853
1.39092	1.69773
1.39253	1.69289
1.39172	1.68886
1.39253	1.68403
1.39092	1.68000
1.39253	1.67516
1.39011	1.67194
1.39011	1.67033
1.39172	1.66630
1.38850	1.66227
1.39011	1.65744
1.38930	1.65502
1.38850	1.64857
1.39172	1.64777
1.39172	1.64696
1.39172	1.64615
1.39172	1.64615
1.39011	1.64535
1.39253	1.64615
1.38850	1.64615
1.39011	1.64615
1.39172	1.64615
1.39253	1.65018
1.39656	1.65421
1.39253	1.65905
1.39253	1.66711
1.39253	1.67194
1.39333	1.67919
1.39414	1.68564
1.39656	1.69773
1.39817	1.70821
1.40300	1.71788
1.40381	1.72916
1.40462	1.74527
1.40542	1.76542
1.40300	1.77590
1.40542	1.80088
1.40542	1.81377
1.40703	1.83473
1.40623	1.86132
1.40703	1.88952
1.40784	1.91692
1.40784	1.94674
1.40945	1.98059
1.40703	2.01443
1.40864	2.05311
1.40784	2.09421
1.40945	2.13612
1.41106	2.18527
1.40784	2.23040
1.40864	2.28198
1.40945	2.33516
1.40542	2.38513
1.40623	2.43670
1.40542	2.49473
1.40381	2.54791
1.40139	2.61077
1.39656	2.66557
1.39495	2.71875
1.39172	2.77194
1.38769	2.82996
1.38689	2.88234
1.38527	2.93150
1.38689	2.97663
1.38366	3.00000
1.38125	3.00000
1.37963	3.00000
1.38044	3.00000
1.38044	3.00000
1.37963	3.00000
1.37883	3.00000
1.37963	3.00000
1.37883	3.00000
1.37963	3.00000
1.37883	3.00000
1.37802	3.00000
1.37802	3.00000
1.37722	3.00000
1.37963	3.00000
1.37641	3.00000
1.37802	3.00000
1.37883	2.97421
1.37963	2.91297
1.37963	2.84527
1.37883	2.77114
1.37963	2.69136
1.37963	2.61238
1.37963	2.52293
1.38205	2.43267
1.38044	2.34242
1.38044	2.25055
1.38205	2.15304
1.38527	2.06278
1.39011	1.97172
1.38850	1.88388
1.39253	1.80168
1.39333	1.71788
1.39414	1.64374
1.40139	1.56960
1.40059	1.51238
1.40462	1.45516
1.40542	1.40842
1.40864	1.36491
1.41590	1.33187
1.41670	1.30286
1.41670	1.28271
1.41751	1.26740
1.41590	1.25773
1.41509	1.24725
1.41267	1.24322
1.40945	1.24322
1.40623	1.24645
1.40462	1.25209
1.40139	1.25853
1.39736	1.26740
1.39656	1.27546
1.39978	1.28432
1.40623	1.29480
1.41751	1.30286
1.43121	1.31253
1.45216	1.32381
1.47231	1.33429
1.49487	1.34234
1.51099	1.35524
1.52308	1.36330
1.53194	1.37297
1.53275	1.38425
1.52711	1.38828
1.51663	1.40037
1.50454	1.40842
1.49165	1.41407
1.47875	1.41890
1.46264	1.42938
1.44974	1.43905
1.43685	1.44388
1.42396	1.45355
1.41106	1.46081
1.39978	1.46645
1.38447	1.47612
1.37238	1.48418
1.35465	1.49223
1.34095	1.50190
1.32564	1.50916
1.30630	1.51722
1.28857	1.52527
1.26923	1.53333
1.25070	1.54300
1.22813	1.55106
1.21282	1.55832
1.19912	1.56799
1.18623	1.57121
1.18139	1.57685
1.18139	1.58330
1.18462	1.58974
1.19429	1.59297
1.20718	1.59619
1.22410	1.59941
1.24667	1.60344
1.26278	1.60505
1.28212	1.60586
1.29824	1.60747
1.31355	1.60989
1.32645	1.61231
1.33531	1.61473
1.34176	1.61473
1.34982	1.61553
1.35626	1.61875
1.36674	1.61634
1.37722	1.61956
1.39172	1.61956
1.40542	1.62037
1.42315	1.62037
1.44088	1.62198
1.45700	1.62520
1.47070	1.62520
1.48278	1.63245
1.48762	1.63487
1.49568	1.63729
1.49971	1.64132
1.50132	1.64615
1.50615	1.64615
1.50696	1.65099
1.50696	1.65663
1.50293	1.65905
1.49890	1.66227
1.49326	1.66469
1.48278	1.66791
1.47634	1.67194
1.46667	1.67194
1.45700	1.67275
1.44894	1.67678
1.44330	1.67597
1.43604	1.67436
1.43121	1.67516
1.42960	1.67275
1.42315	1.67194
1.41590	1.67194
1.40945	1.67114
1.40784	1.66711
1.40542	1.66308
1.40542	1.66066
1.40542	1.65985
1.40542	1.65905
1.40542	1.65421
1.40462	1.65421
1.39817	1.64857
1.39172	1.64857
1.38366	1.64857
1.37480	1.64938
1.35868	1.64857
1.34821	1.64615
1.33692	1.64696
1.32322	1.65018
1.31275	1.64857
1.30066	1.65179
1.29018	1.65260
1.28374	1.65582
1.27648	1.65905
1.27648	1.66147
1.27648	1.66711
1.27890	1.66952
1.28615	1.67194
1.29179	1.67678
1.30308	1.67678
1.31436	1.68403
1.32806	1.68725
1.34015	1.68967
1.35223	1.69370
1.36593	1.69370
1.37802	1.69692
1.38447	1.69128
1.39333	1.69531
1.40542	1.69370
1.41348	1.69531
1.42073	1.69451
1.42879	1.68967
1.43363	1.68967
1.44088	1.68886
1.44491	1.68564
1.44652	1.68242
1.44974	1.67919
1.44974	1.67597
1.44894	1.67597
1.44894	1.67436
1.44330	1.67194
1.43685	1.67194
1.43121	1.67114
1.42396	1.67194
1.41993	1.66791
1.41026	1.67033
1.40462	1.67033
1.39656	1.67114
1.39253	1.67275
1.38930	1.67275
1.37963	1.67516
1.37480	1.67597
1.37077	1.68161
1.36593	1.68403
1.36513	1.68564
1.36271	1.69209
1.36352	1.69531
1.36271	1.69773
1.36432	1.70095
1.36755	1.70176
1.36593	1.70659
1.36593	1.71062
1.36352	1.70982
1.36513	1.71304
1.36513	1.71143
1.36432	1.71465
1.36432	1.71626
1.36593	1.71546
1.36755	1.71626
1.37077	1.71465
1.37480	1.71385
1.37722	1.71223
1.37963	1.71062
1.37963	1.71062
1.38850	1.70498
1.39092	1.70176
1.39253	1.70176
1.39495	1.69934
1.39736	1.69692
1.40300	1.69048
1.40139	1.69209
1.40139	1.68967
1.40139	1.68645
1.40139	1.68645
1.40462	1.68403
1.40300	1.68403
1.40381	1.68322
1.40462	1.68484
1.40462	1.68161
1.40623	1.68484
1.40542	1.68645
1.40462	1.69048
1.40462	1.69209
1.40542	1.69612
1.40542	1.69773
1.40462	1.69934
1.40381	1.70095
1.40462	1.70740
1.40542	1.70982
1.40542	1.71143
1.40542	1.71465
1.40542	1.71788
1.40381	1.72110
1.40381	1.72271
1.40462	1.72352
1.40300	1.72513
1.40300	1.72352
1.40300	1.72432
1.40300	1.72432
1.40542	1.72352
1.40462	1.72352
1.40381	1.72352
1.40462	1.71949
1.40462	1.71868
1.40542	1.71465
1.40381	1.71223
1.40542	1.71062
1.40542	1.71062
1.40462	1.70901
1.40542	1.70579
1.40300	1.70337
1.40139	1.70176
1.40139	1.70176
1.40300	1.69853
1.40139	1.70015
1.39978	1.70015
1.39978	1.70095
1.39736	1.70256
1.39736	1.70659
1.40220	1.70498
1.40059	1.70901
1.39978	1.71062
1.39978	1.71304
1.39736	1.71788
1.40139	1.72110
1.39978	1.72352
1.39978	1.72835
1.39736	1.73399
1.40059	1.73802
1.40139	1.74125
1.40059	1.74608
1.40059	1.74850
1.39736	1.74930
1.39817	1.75172
1.40059	1.75414
1.39736	1.75495
1.39736	1.75656
1.39978	1.75736
1.39978	1.75736
1.40220	1.75414
1.40059	1.75414
1.39817	1.75253
1.39575	1.74930
1.39736	1.74769
1.39817	1.74527
1.39656	1.74205
1.39495	1.73802
1.39414	1.73480
1.39656	1.73238
1.39736	1.72835
1.39736	1.72916
1.39656	1.72432
1.39656	1.72352
1.39736	1.72352
1.39817	1.72110
1.40059	1.72352
1.39817	1.72352
1.39656	1.72432
1.39575	1.72513
1.39656	1.72835
1.39253	1.72916
1.39333	1.73641
1.39253	1.73641
1.39253	1.74366
1.39333	1.74527
1.39253	1.75011
1.39253	1.75495
1.39253	1.76462
1.39253	1.77026
1.39333	1.77429
1.39253	1.77670
1.39253	1.78073
1.39333	1.78315
1.39414	1.78799
1.39736	1.79040
1.39414	1.79604
1.39656	1.79685
1.39736	1.79685
1.39817	1.79846
1.39817	1.79846
1.39736	1.79685
1.39656	1.79766
1.39495	1.79524
1.39414	1.79363
1.39656	1.78960
1.39333	1.78879
1.39495	1.78799
1.39414	1.78234
1.39414	1.77912
1.39495	1.77832
1.39495	1.77590
1.39495	1.78637
1.39736	1.77267
1.39414	1.77267
1.39978	1.77026
1.39656	1.77267
1.39736	1.77106
1.39736	1.77026
1.39978	1.77267
1.40139	1.77348
1.39978	1.77509
1.39897	1.77590
1.39495	1.77912
1.39575	1.78315
1.39253	1.79040
1.39253	1.79121
1.39333	1.79927
1.39333	1.80330
1.39253	1.80491
1.39495	1.80894
1.39414	1.81377
1.39253	1.81861
1.39253	1.82344
1.39172	1.82667
1.39495	1.82828
1.40864	1.82908
1.43040	1.83473
1.43121	1.83553
1.41670	1.83553
1.38527	1.83553
1.34498	1.83634
1.31436	1.83392
1.29502	1.83150
1.29341	1.83473
1.31275	1.82747
1.34337	1.82747
1.37963	1.82667
1.41993	1.82586
1.44652	1.82425
1.45700	1.82183
1.45297	1.82103
1.44330	1.81861
1.43040	1.81861
1.41590	1.81861
1.40623	1.81861
1.39656	1.82103
1.39011	1.82264
1.38205	1.82425
1.37802	1.82425
1.37963	1.82586
1.37963	1.82747
1.38366	1.83311
1.38689	1.83553
1.38930	1.84198
1.39333	1.84681
1.39253	1.85165
1.39253	1.85487
1.39253	1.85971
1.39414	1.86454
1.39656	1.86696
1.39414	1.87421
1.39253	1.87824
1.38850	1.88066
1.38366	1.88308
1.38205	1.88872
1.38044	1.89194
1.37963	1.89597
1.37963	1.89516
1.37963	1.89919
1.37883	1.89839
1.37883	1.90161
1.37883	1.90161
1.37963	1.89919
1.37963	1.90161
1.38205	1.89678
1.38125	1.89355
1.37963	1.89355
1.37883	1.89275
1.37963	1.89194
1.38044	1.89275
1.37963	1.89114
1.38205	1.89033
1.38447	1.88952
1.38850	1.88711
1.39253	1.88630
1.39172	1.88791
1.39092	1.88872
1.39172	1.89033
1.39092	1.89114
1.39172	1.89275
1.39092	1.89597
1.39011	1.90000
1.39011	1.90242
1.39011	1.90403
1.39011	1.90645
1.38527	1.91370
1.38447	1.91612
1.38447	1.91934
1.38205	1.92418
1.38366	1.92740
1.38125	1.93143
1.38205	1.93223
1.38044	1.93707
1.37963	1.94029
1.38205	1.94110
1.38125	1.94352
1.38205	1.94513
1.38125	1.94513
1.38125	1.94513
1.38447	1.94352
1.38447	1.94271
1.38366	1.94190
1.38366	1.93868
1.38447	1.93385
1.38447	1.93143
1.38366	1.93062
1.38527	1.92982
1.38366	1.92498
1.38366	1.92176
1.38527	1.91773
1.38205	1.91934
1.38205	1.91692
1.38205	1.91370
1.38205	1.91370
1.38366	1.90886
1.38205	1.91289
1.38366	1.91209
1.38366	1.91128
1.38447	1.91289
1.38850	1.91209
1.38527	1.91451
1.38527	1.91692
1.38527	1.91853
1.38527	1.92095
1.38850	1.92418
1.38527	1.92901
1.38689	1.93062
1.38447	1.93546
1.38769	1.93868
1.38850	1.94190
1.38850	1.94513
1.39011	1.95077
1.38850	1.95077
1.39092	1.95319
1.39253	1.95560
1.39092	1.95560
1.39172	1.95722
1.39092	1.95560
1.39172	1.95560
1.39172	1.95319
1.39011	1.95238
1.39092	1.94755
1.39011	1.94513
1.39011	1.94029
1.39011	1.93546
1.39011	1.93143
1.38769	1.92821
1.38850	1.92418
1.38689	1.91692
1.38850	1.91209
1.38447	1.90886
1.38527	1.90403
1.38286	1.89597
1.38286	1.89275
1.38527	1.88952
1.38447	1.88549
1.38527	1.88066
1.38527	1.87824
1.38205	1.87744
1.38769	1.87260
1.38447	1.87260
1.38527	1.86777
1.38366	1.86535
1.38527	1.86535
1.38769	1.86293
1.38689	1.86374
1.38527	1.86293
1.38447	1.86051
1.38689	1.85729
1.39011	1.85729
1.38769	1.85487
1.38769	1.85487
1.38689	1.85245
1.38769	1.85084
1.38850	1.84681
1.38850	1.84198
1.38850	1.83875
1.39011	1.83231
1.39011	1.82667
1.39172	1.82344
1.38850	1.81538
1.38769	1.81055
1.38850	1.80168
1.38850	1.79604
1.39011	1.78637
1.38769	1.77912
1.38850	1.77106
1.38850	1.76381
1.38769	1.74930
1.38850	1.74044
1.38527	1.72190
1.38447	1.72755
1.38527	1.72352
1.38769	1.71626
1.39092	1.70821
1.38769	1.70498
1.38769	1.69773
1.38769	1.69692
1.39011	1.68967
1.39253	1.68564
1.39011	1.68242
1.39011	1.68081
1.38850	1.67919
1.38769	1.67678
1.39172	1.67597
1.38850	1.67597
1.39011	1.67597
1.38850	1.67194
1.39172	1.67194
1.39253	1.67194
1.39172	1.67194
1.39011	1.67114
1.38769	1.67114
1.38769	1.66952
1.39092	1.66388
1.38930	1.66469
1.38930	1.66227
1.38769	1.65905
1.39011	1.65663
1.39092	1.65341
1.38930	1.65341
1.39253	1.64615
1.39253	1.64212
1.39172	1.63568
1.39333	1.63245
1.39333	1.62520
1.39253	1.62117
1.39253	1.62037
1.39253	1.61231
1.39495	1.60667
1.39495	1.60505
1.39495	1.60022
1.39495	1.59700
1.39656	1.59458
1.39656	1.59136
1.39414	1.59216
1.39495	1.58894
1.39495	1.58652
1.39495	1.58491
1.39817	1.58249
1.39575	1.58330
1.39736	1.58330
1.39656	1.58733
1.39736	1.58571
1.40139	1.58974
1.39978	1.59136
1.39817	1.59458
1.39978	1.59538
1.39736	1.59861
1.40139	1.59861
1.39817	1.60264
1.39736	1.60425
1.39495	1.60667
1.39414	1.60747
1.39414	1.60747
1.39253	1.61070
1.39172	1.60747
1.39172	1.60989
1.39011	1.60828
1.39092	1.60747
1.38850	1.60586
1.39011	1.60747
1.38930	1.60505
1.39172	1.59941
1.39253	1.59700
1.39253	1.59538
1.39253	1.59377
1.39253	1.58974
1.39253	1.58894
1.39656	1.58491
1.39333	1.58330
1.39414	1.58168
1.39495	1.58007
1.39253	1.57927
1.39495	1.57604
1.39495	1.57282
1.39414	1.57443
1.39817	1.57604
1.40139	1.57604
1.40381	1.57363
1.40462	1.57685
1.40381	1.57766
1.40542	1.58168
1.40542	1.58410
1.41026	1.58330
1.40864	1.58733
1.41348	1.59055
1.41751	1.59458
1.42073	1.59780
1.42718	1.59861
1.43121	1.60264
1.43282	1.60505
1.44007	1.60747
1.44571	1.60989
1.45780	1.60828
1.46989	1.61231
1.48278	1.61311
1.50051	1.61231
1.51099	1.61070
1.52952	1.61150
1.53919	1.60908
1.54806	1.60747
1.55209	1.60425
1.54725	1.60183
1.53194	1.59619
1.49568	1.59377
1.45136	1.59216
1.39333	1.58652
1.33692	1.58410
1.28212	1.58007
1.22491	1.57927
1.18300	1.57282
1.15480	1.57040
1.13788	1.56879
1.13626	1.56637
1.14190	1.56637
1.15560	1.56637
1.17736	1.56637
1.20879	1.56718
1.24667	1.56637
1.28374	1.56879
1.32000	1.57121
1.35949	1.57282
1.39736	1.58007
1.43363	1.57927
1.46586	1.58410
1.49326	1.58974
1.51018	1.59297
1.52066	1.59458
1.52872	1.60183
1.52227	1.60344
1.50857	1.60747
1.49165	1.61150
1.47392	1.61473
1.45700	1.61311
1.43846	1.61795
1.42960	1.61714
1.42234	1.61795
1.41912	1.61795
1.42234	1.61392
1.42315	1.61553
1.42718	1.60908
1.42879	1.60667
1.42879	1.60505
1.42557	1.60264
1.41912	1.59861
1.41267	1.59538
1.40703	1.59458
1.40542	1.58894
1.40462	1.58733
1.39978	1.58652
1.39495	1.58249
1.39253	1.58088
1.38527	1.57927
1.38205	1.57766
1.37722	1.57927
1.36593	1.58007
1.35788	1.58007
1.35385	1.58168
1.34256	1.58088
1.33773	1.58410
1.33370	1.58652
1.33209	1.59136
1.33048	1.59055
1.33370	1.59297
1.33531	1.59458
1.33531	1.59700
1.33853	1.60022
1.34095	1.60264
1.34579	1.60747
1.34579	1.60828
1.34982	1.60989
1.35304	1.61231
1.35385	1.61150
1.35949	1.61392
1.36110	1.61634
1.36432	1.61714
1.36674	1.61795
1.36755	1.61473
1.37238	1.61473
1.37158	1.61473
1.37480	1.61231
1.37560	1.60989
1.37802	1.60828
1.37963	1.60505
1.37963	1.60264
1.37963	1.60344
1.37963	1.59941
1.37963	1.59458
1.38044	1.59377
1.37963	1.59216
1.37963	1.58974
1.37963	1.58652
1.38044	1.58894
1.38205	1.58894
1.38125	1.58894
1.38205	1.58974
1.38205	1.58571
1.38205	1.58974
1.38366	1.59055
1.38366	1.59377
1.38366	1.59458
1.38205	1.59700
1.38447	1.60183
1.38850	1.60183
1.38930	1.60586
1.39253	1.60989
1.39253	1.61473
1.39333	1.61714
1.39656	1.62037
1.39656	1.62278
1.39736	1.62520
1.39817	1.63165
1.39736	1.63245
1.40059	1.63326
1.40059	1.63890
1.40059	1.63487
1.40139	1.63568
1.40462	1.63487
1.40542	1.63407
1.40462	1.63407
1.40542	1.63165
1.40462	1.62923
1.40300	1.62842
1.40462	1.62117
1.40381	1.61875
1.40381	1.61956
1.40139	1.61714
1.39817	1.61392
1.39736	1.61150
1.40059	1.60667
1.39817	1.60828
1.39817	1.60667
1.39656	1.60103
1.39817	1.60103
1.39736	1.60183
1.39656	1.60344
1.39495	1.60425
1.39736	1.60183
1.39575	1.60505
1.39575	1.60747
1.39414	1.60747
1.39495	1.60989
1.39575	1.61231
1.39656	1.61311
1.39414	1.62037
1.39414	1.62037
1.39414	1.62762
1.39333	1.63004
1.39414	1.63245
1.39414	1.63487
1.39253	1.64132
1.39333	1.64374
1.39333	1.64454
1.39333	1.64454
1.39011	1.64615
1.39172	1.64777
1.39092	1.64696
1.39011	1.64696
1.39253	1.64615
1.39011	1.64696
1.39253	1.64615
1.39253	1.64212
1.39333	1.64212
1.39656	1.63729
1.39414	1.63648
1.39414	1.63245
1.39333	1.63165
1.39333	1.62842
1.39495	1.62520
1.39253	1.62198
1.39253	1.62037
1.39172	1.62037
1.39092	1.62037
1.39253	1.61956
1.39172	1.61956
1.39172	1.61956
1.39253	1.62037
1.39253	1.62037
1.39333	1.62037
1.39253	1.62198
1.39414	1.62117
1.39333	1.62842
1.39333	1.63084
1.39495	1.63084
1.39253	1.63407
1.39253	1.63890
1.39253	1.64454
1.39253	1.64535
1.39253	1.64696
1.39253	1.65179
1.39172	1.65260
1.39253	1.65502
1.39172	1.65663
1.39253	1.65663
1.39092	1.65905
1.39172	1.65985
1.39092	1.65985
1.39172	1.66066
1.39253	1.65824
1.39172	1.65905
1.39011	1.65824
1.39011	1.65502
1.39011	1.65341
1.39092	1.65018
1.38850	1.64615
1.38850	1.64615
1.38850	1.64615
1.39011	1.64374
1.39011	1.64132
1.38769	1.64051
1.38850	1.63729
1.38527	1.63729
1.38447	1.63568
1.38447	1.63245
1.38286	1.63407
1.38286	1.63487
1.38366	1.63407
1.38447	1.63729
1.38527	1.63568
1.38286	1.63810
1.38366	1.64212
1.38366	1.64535
1.38366	1.64615
1.38769	1.64857
1.38527	1.65260
1.38527	1.65744
1.38769	1.66066
1.38527	1.66308
1.38769	1.66469
1.38527	1.67033
1.38527	1.67194
1.38366	1.67275
1.38366	1.67436
1.38447	1.67597
1.38286	1.67919
1.38044	1.68081
1.38044	1.68000
1.38125	1.68000
1.38125	1.67919
1.38125	1.67758
1.38125	1.67597
1.38125	1.67355
1.38205	1.67194
1.38366	1.67114
1.38205	1.66872
1.38527	1.66630
1.38125	1.66308
1.38366	1.65985
1.38689	1.65824
1.38447	1.65502
1.38689	1.65502
1.38689	1.65179
1.38527	1.65099
1.38930	1.64857
1.39092	1.65179
1.39092	1.64857
1.39011	1.64777
1.39172	1.64777
1.39172	1.65341
1.39172	1.65179
1.39092	1.65502
1.39011	1.65824
1.39011	1.66066
1.39253	1.66227
1.39253	1.66791
1.39253	1.67114
1.39253	1.67194
1.39253	1.67516
1.39414	1.67758
1.39253	1.68081
1.39253	1.68484
1.39253	1.68725
1.39172	1.68725
1.39253	1.68967
1.39253	1.69048
1.39253	1.69209
1.39253	1.69048
1.39333	1.68967
1.39414	1.68967
1.39253	1.68645
1.39253	1.68564
1.39253	1.68484
1.39253	1.66952
1.39253	1.67597
1.39172	1.67436
1.38850	1.66952
1.38850	1.67033
1.38689	1.66872
1.38527	1.66469
1.38286	1.65905
1.38125	1.65905
1.38125	1.65663
1.37963	1.65502
1.38125	1.65099
1.37963	1.65341
1.38044	1.65099
1.38044	1.65099
1.38125	1.65341
1.38527	1.65099
1.38527	1.65421
1.38930	1.65663
1.38527	1.65905
1.38930	1.65985
1.39092	1.66147
1.39011	1.66630
1.39092	1.66872
1.39011	1.67114
1.39092	1.67194
1.39172	1.67355
1.38769	1.68000
1.39092	1.68242
1.39172	1.68403
1.39414	1.68725
1.39656	1.68725
1.39575	1.69048
1.39736	1.69370
1.39978	1.69128
1.39978	1.68806
1.40059	1.68967
1.40059	1.68645
1.40059	1.68564
1.39817	1.68403
1.40059	1.68081
1.40300	1.67919
1.40139	1.67436
1.40059	1.67194
1.40300	1.66952
1.40381	1.66952
1.40462	1.66308
1.40381	1.66388
1.40300	1.65905
1.40542	1.65824
1.40542	1.65744
1.40542	1.65582
1.40542	1.65582
1.40542	1.65663
1.40542	1.65341
1.40623	1.65502
1.40784	1.65421
1.40542	1.65421
1.40542	1.65744
1.40542	1.65905
1.40542	1.65985
1.40542	1.66147
1.40542	1.66791
1.40542	1.66952
1.40462	1.67194
1.40300	1.67275
1.40381	1.67436
1.40139	1.68000
1.39978	1.68081
1.39817	1.68564
1.39736	1.68645
1.40139	1.68725
1.39656	1.68967
1.39736	1.69048
1.39656	1.68886
1.39495	1.69048
1.39495	1.69048
1.39333	1.68725
1.39253	1.68886
1.39172	1.68564
1.39253	1.68242
1.39172	1.68000
1.39092	1.67758
1.39092	1.67355
1.39172	1.67194
1.39172	1.67194
1.39172	1.67033
1.38689	1.66952
1.38689	1.66630
1.38689	1.66388
1.38527	1.66308
1.38608	1.66147
1.38205	1.65985
1.38205	1.65905
1.38205	1.65905
1.37963	1.65985
1.38205	1.66066
1.38044	1.66308
1.38205	1.66469
1.38044	1.66630
1.38205	1.67033
1.38447	1.67194
1.38366	1.67275
1.38447	1.67436
1.38527	1.68000
1.38769	1.68081
1.39172	1.68242
1.38850	1.68322
1.39092	1.68645
1.39011	1.68806
1.39011	1.68886
1.39172	1.68967
1.38930	1.69209
1.38930	1.69048
1.38850	1.69048
1.38850	1.68886
1.39172	1.68564
1.39011	1.68484
1.39092	1.68242
1.39011	1.68161
1.39253	1.67597
1.39414	1.67275
1.39253	1.67194
1.39253	1.67033
1.39253	1.66711
1.39333	1.66388
1.39495	1.65905
1.39495	1.65824
1.39333	1.65663
1.39253	1.65421
1.39253	1.65421
1.39495	1.64857
1.39333	1.64938
1.39172	1.65018
1.39172	1.64857
1.39253	1.64857
1.39333	1.65018
1.39092	1.65341
1.39011	1.65582
1.39011	1.65824
1.39011	1.65905
1.39253	1.66066
1.38850	1.66388
1.39092	1.66791
1.38850	1.67194
1.39011	1.67355
1.39092	1.67436
1.38769	1.68081
1.38850	1.68161
1.38850	1.68484
1.38850	1.68725
1.39092	1.68725
1.38769	1.68886
1.38689	1.69209
1.38689	1.69209
1.38527	1.69048
1.38850	1.68645
1.38447	1.68645
1.38527	1.68403
1.38447	1.68161
1.38527	1.68000
1.38769	1.67275
1.38527	1.67355
1.38850	1.66952
1.38769	1.66469
1.39011	1.66147
1.39253	1.65744
1.39172	1.65582
1.39172	1.65099
1.39172	1.65018
1.39253	1.64615
1.39414	1.64454
1.39253	1.64615
1.39333	1.64535
1.39333	1.64374
1.39414	1.64454
1.39575	1.64374
1.39253	1.64615
1.39253	1.64615
1.39253	1.64777
1.39253	1.65018
1.39575	1.65018
1.39333	1.65421
1.39253	1.65905
1.39253	1.66066
1.39333	1.66388
1.39575	1.66791
1.39656	1.67114
1.39414	1.67194
1.39495	1.67194
1.39414	1.67758
1.39495	1.67597
1.39253	1.67678
1.39172	1.68000
1.39011	1.67919
1.39011	1.67597
1.39011	1.65985
1.38689	1.67275
1.38366	1.67033
1.38366	1.66791
1.38527	1.66630
1.38527	1.65985
1.38527	1.65824
1.38689	1.65502
1.38850	1.65099
1.39172	1.64615
1.39253	1.64615
1.39172	1.64293
1.39092	1.64132
1.39011	1.63568
1.38850	1.63971
1.39011	1.63729
1.38850	1.63648
1.38850	1.63568
1.38769	1.63568
1.38850	1.63729
1.39011	1.64051
1.38689	1.64051
1.38769	1.64374
1.38527	1.64535
1.38769	1.64615
1.38769	1.64777
1.38527	1.65099
1.38769	1.65421
1.38689	1.65744
1.38850	1.65905
1.39092	1.66147
1.39092	1.66388
1.38769	1.66952
1.39172	1.67275
1.39011	1.66791
1.39172	1.67033
1.39092	1.67114
1.38850	1.67194
1.39172	1.67194
1.39172	1.67194
1.39253	1.67114
1.39253	1.66872
1.39092	1.66711
1.39172	1.66388
1.39011	1.65985
1.39253	1.65582
1.39092	1.65502
1.39011	1.65179
1.39011	1.65018
1.39011	1.64615
1.39172	1.64132
1.38689	1.64051
1.38527	1.63326
1.38447	1.63326
1.38125	1.63407
1.38366	1.62923
1.37963	1.63004
1.37963	1.63004
1.38044	1.62842
1.38044	1.63004
1.38366	1.62762
1.38125	1.62842
1.38205	1.63245
1.38447	1.63004
1.38527	1.63487
1.39011	1.63729
1.39172	1.64051
1.39172	1.64132
1.39253	1.64615
1.39253	1.64777
1.39333	1.64857
1.39253	1.65502
1.39253	1.65421
1.39011	1.65663
1.38850	1.65905
1.39172	1.65985
1.38769	1.66308
1.38930	1.66388
1.38850	1.66227
1.38769	1.66308
1.39011	1.66066
1.38930	1.66147
1.38850	1.66308
1.38930	1.66308
1.38850	1.65905
1.39092	1.65663
1.39092	1.65663
1.39092	1.65421
1.39011	1.65099
1.39172	1.64696
1.39253	1.64615
1.39253	1.64615
1.39172	1.64615
1.39253	1.64535
1.39172	1.64615
1.39414	1.64454
1.39333	1.64535
1.40059	1.64615
1.40381	1.64535
1.40300	1.64615
1.39172	1.64615
1.37963	1.64857
1.36674	1.65179
1.36190	1.65502
1.36271	1.65905
1.36755	1.65905
1.37722	1.66308
1.37963	1.66630
1.38447	1.66872
1.38447	1.67194
1.38125	1.67355
1.37883	1.67597
1.37722	1.67678
1.37883	1.68000
1.37963	1.68081
1.38527	1.68081
1.38850	1.68403
1.38527	1.68322
1.38769	1.68161
1.38205	1.68242
1.38125	1.67758
1.37963	1.67597
1.37963	1.67355
1.37963	1.67114
1.37963	1.66952
1.37963	1.66147
1.37883	1.66147
1.37802	1.65502
1.37883	1.65502
1.38125	1.64615
1.38447	1.64615
1.39092	1.64535
1.39253	1.64374
1.39495	1.64212
1.40059	1.63971
1.40059	1.63729
1.39575	1.64051
1.39575	1.64374
1.39333	1.64535
1.39253	1.64615
1.39333	1.64696
1.39253	1.65421
1.39172	1.65905
1.39172	1.66147
1.39011	1.66952
1.39253	1.67194
1.38930	1.67678
1.39011	1.68322
1.38930	1.68806
1.39253	1.69692
1.39414	1.69773
1.39253	1.70256
1.39414	1.71062
1.39575	1.71062
1.39414	1.71465
1.39736	1.71788
1.39575	1.72271
1.39817	1.72352
1.39817	1.72271
1.39817	1.72432
1.40220	1.72352
1.39817	1.72352
1.39817	1.72352
1.39817	1.72110
1.39817	1.72029
1.40059	1.71546
1.40059	1.71223
1.39817	1.71062
1.39978	1.70659
1.39656	1.70176
1.40139	1.69934
1.39656	1.69773
1.39656	1.69612
1.39495	1.69209
1.39495	1.68806
1.39414	1.68725
1.39253	1.68403
1.39253	1.68322
1.39333	1.67919
1.39253	1.67758
1.39253	1.68000
1.39253	1.67678
1.39253	1.67758
1.39253	1.68000
1.39253	1.68000
1.39253	1.68242
1.39092	1.68322
1.38930	1.68564
1.38769	1.68645
1.38850	1.68886
1.39172	1.69048
1.38850	1.69370
1.38930	1.69531
1.38689	1.69773
1.38689	1.70095
1.38850	1.69773
1.38366	1.69934
1.38527	1.69773
1.38527	1.69773
1.38447	1.69853
1.39092	1.69773
1.39011	1.69773
1.38850	1.69692
1.39011	1.69370
1.39092	1.69289
1.39253	1.68967
1.39172	1.68967
1.39172	1.68645
1.39253	1.68403
1.39333	1.68081
1.39414	1.67919
1.39253	1.67758
1.39253	1.67355
1.39253	1.67275
1.39172	1.67275
1.39253	1.67194
1.39253	1.67194
1.39172	1.67194
1.39172	1.67033
1.39253	1.67194
1.39656	1.67114
1.39736	1.67194
1.39978	1.67194
1.39978	1.67436
1.40139	1.67436
1.40381	1.67597
1.40300	1.68000
1.40462	1.68000
1.40462	1.68161
1.40542	1.68484
1.40542	1.68806
1.40542	1.68967
1.40542	1.69048
1.40139	1.69451
1.40300	1.69612
1.40220	1.69531
1.39817	1.69612
1.39817	1.69370
1.39817	1.69209
1.39817	1.69209
1.39978	1.68886
1.39736	1.68725
1.39656	1.68484
1.39817	1.68242
1.39656	1.68081
1.39495	1.67436
1.39656	1.67275
1.39333	1.67033
1.39656	1.67194
1.39575	1.67033
1.39414	1.66227
1.39253	1.66227
1.39092	1.65179
1.39092	1.65985
1.39172	1.65744
1.39092	1.65421
1.39092	1.65582
1.39092	1.65341
1.39172	1.65502
1.39253	1.65421
1.39414	1.65179
1.39253	1.65582
1.39333	1.65663
1.39495	1.65824
1.39495	1.65985
1.39656	1.66066
1.39495	1.66630
1.39736	1.66711
1.39736	1.67033
1.40059	1.66952
1.40300	1.67194
1.39817	1.67436
1.39736	1.67436
1.39656	1.68000
1.39333	1.68000
1.39495	1.68081
1.39172	1.68322
1.39092	1.68403
1.38930	1.68242
1.38930	1.68403
1.39253	1.67919
1.39011	1.68000
1.39253	1.67919
1.39172	1.67678
1.39253	1.67436
1.39333	1.67194
1.39253	1.67114
1.39253	1.67033
1.39333	1.66388
1.39253	1.66630
1.39414	1.66308
1.39253	1.66308
1.39253	1.65905
1.39172	1.65905
1.39253	1.65905
1.39253	1.65744
1.39172	1.65905
1.39092	1.65824
1.39092	1.65905
1.39011	1.65905
1.39092	1.65985
1.38930	1.66308
1.38850	1.66791
1.38850	1.66952
1.38850	1.67114
1.38930	1.67355
1.38527	1.67758
1.38689	1.68242
1.38205	1.68564
1.38447	1.68645
1.38689	1.69370
1.38205	1.69451
1.38205	1.69692
1.38125	1.69934
1.38205	1.70176
1.38447	1.70015
1.38447	1.70256
1.38447	1.70256
1.38447	1.70256
1.38366	1.70337
1.38527	1.70176
1.38447	1.70176
1.38366	1.69934
1.38125	1.69773
1.38205	1.69773
1.38125	1.69370
1.37963	1.69048
1.37722	1.68725
1.37722	1.68322
1.37560	1.67758
1.37722	1.67436
1.37238	1.67194
1.37238	1.66791
1.37480	1.65985
1.37560	1.65824
1.37802	1.65421
1.37963	1.64777
1.37883	1.64615
1.37963	1.64454
1.38044	1.64132
1.38125	1.63326
1.37963	1.63407
1.37883	1.63165
1.37722	1.63004
1.37560	1.63004
1.37802	1.62842
1.37560	1.62842
1.37480	1.63084
1.37560	1.63326
1.37883	1.63729
1.37963	1.64132
1.37963	1.64615
1.38125	1.65341
1.38527	1.65985
1.38366	1.66952
1.38769	1.67597
1.38850	1.68645
1.39092	1.69934
1.39172	1.71143
1.39495	1.72352
1.39495	1.73883
1.39575	1.75817
1.39736	1.77590
1.39978	1.80007
1.40059	1.81861
1.40381	1.84359
1.40381	1.86777
1.40462	1.89839
1.40542	1.92498
1.40381	1.95963
1.40542	1.99429
1.40462	2.03297
1.40300	2.07326
1.40381	2.11919
1.40300	2.16271
1.40300	2.21429
1.40059	2.26505
1.39817	2.31824
1.39978	2.37223
1.39414	2.43026
1.39414	2.48505
1.39172	2.54308
1.38850	2.60593
1.38447	2.66315
1.38125	2.72117
1.38205	2.78081
1.37963	2.83802
1.37802	2.89282
1.37963	2.94842
1.37722	3.00000
1.37802	3.00000
1.37560	3.00000
1.37238	3.00000
1.36996	3.00000
1.37077	3.00000
1.37158	3.00000
1.37158	3.00000
1.37238	3.00000
1.37238	3.00000
1.37480	3.00000
1.37963	3.00000
1.37802	3.00000
1.37722	3.00000
1.37963	3.00000
1.37963	3.00000
1.37963	3.00000
1.37963	3.00000
1.37963	3.00000
1.37883	2.99597
1.37963	2.93473
1.38205	2.86220
1.38125	2.78886
1.37963	2.70586
1.38125	2.62608
1.38044	2.53421
1.38447	2.44396
1.38608	2.34886
1.38527	2.25377
1.38850	2.15707
1.38850	2.06359
1.39253	1.97253
1.39253	1.88549
1.39495	1.80007
1.39656	1.71223
1.40139	1.63568
1.40542	1.56718
1.40542	1.50432
1.40623	1.44952
1.41026	1.40117
1.41267	1.36249
1.41912	1.32381
1.41993	1.29802
1.41993	1.28110
1.42073	1.26659
1.42234	1.25692
1.42234	1.25048
1.41751	1.24886
1.41590	1.24967
1.41267	1.25531
1.40784	1.26015
1.40542	1.26659
1.40381	1.27868
1.40139	1.28674
1.40139	1.29883
1.40542	1.31011
1.41509	1.32139
1.42879	1.33429
1.44410	1.34476
1.46103	1.36088
1.48359	1.36974
1.50777	1.38022
1.52147	1.38908
1.53436	1.40198
1.53839	1.41004
1.53678	1.41568
1.53436	1.42535
1.52147	1.43502
1.50777	1.43985
1.49165	1.45033
1.47795	1.45275
1.46264	1.46403
1.45136	1.46806
1.43846	1.47773
1.42637	1.48337
1.41429	1.49143
1.40381	1.49626
1.38689	1.50674
1.37399	1.51480
1.35868	1.51883
1.34337	1.52930
1.32967	1.53575
1.31114	1.54462
1.29260	1.55187
1.27648	1.55832
1.25311	1.56637
1.23458	1.56879
1.21604	1.57766
1.20154	1.58410
1.19106	1.58894
1.18703	1.59297
1.18864	1.59458
1.19670	1.59941
1.20396	1.60022
1.22088	1.60103
1.24183	1.60586
1.26601	1.60667
1.28132	1.60908
1.29985	1.60908
1.31436	1.61150
1.32725	1.61231
1.33773	1.61311
1.34337	1.61473
1.35143	1.61311
1.35385	1.61956
1.36029	1.61634
1.37480	1.61875
1.38608	1.62198
1.39817	1.62278
1.40703	1.62440
1.42557	1.62762
1.44410	1.62923
1.45780	1.63245
1.47231	1.63568
1.48520	1.63890
1.49729	1.64454
1.50857	1.64615
1.51663	1.64857
1.52227	1.65421
1.51744	1.65744
1.51018	1.65985
1.50615	1.66469
1.49326	1.66791
1.48278	1.67114
1.46989	1.67194
1.45941	1.67597
1.45619	1.67436
1.44652	1.67919
1.44410	1.68081
1.44249	1.68000
1.44088	1.68242
1.44330	1.67758
1.44168	1.68242
1.44007	1.67597
1.43604	1.68000
1.43363	1.67597
1.43282	1.67355
1.43040	1.67355
1.42396	1.67194
1.41912	1.67114
1.41267	1.66872
1.40864	1.66630
1.40139	1.66388
1.39333	1.66227
1.39011	1.66066
1.38527	1.65905
1.38286	1.65985
1.37963	1.66066
1.37802	1.66066
1.37238	1.66066
1.36835	1.66308
1.36271	1.66388
1.35385	1.66711
1.34659	1.67114
1.33692	1.67194
1.32806	1.67355
1.32161	1.67919
1.30791	1.68403
1.30066	1.68725
1.29421	1.69289
1.28535	1.69692
1.28535	1.69773
1.28212	1.70095
1.28454	1.70498
1.28938	1.70740
1.29824	1.71062
1.31033	1.71143
1.32242	1.71465
1.33370	1.71385
1.34982	1.71546
1.35949	1.71465
1.37883	1.71304
1.38286	1.71546
1.39333	1.71304
1.40059	1.71143
1.40542	1.71062
1.41267	1.70982
1.41348	1.70659
1.41751	1.70498
1.41912	1.70337
1.42073	1.69853
1.42637	1.69612
1.42396	1.69612
1.42396	1.69612
1.42718	1.69209
1.42718	1.69209
1.42718	1.68967
1.42234	1.69048
1.42154	1.69048
1.41670	1.69289
1.41429	1.69048
1.41106	1.69370
1.40784	1.69692
1.40462	1.69773
1.39978	1.69853
1.39253	1.70095
1.39092	1.70176
1.38366	1.70740
1.38125	1.70982
1.37963	1.71223
1.37963	1.71546
1.37963	1.71949
1.37963	1.72352
1.37883	1.72352
1.37560	1.72674
1.37641	1.73158
1.37883	1.73238
1.37963	1.73560
1.37722	1.73722
1.37963	1.73560
1.38044	1.73641
1.38527	1.73560
1.38205	1.73641
1.38527	1.73399
1.38527	1.73077
1.38769	1.72996
1.39011	1.72755
1.38850	1.72271
1.39011	1.72271
1.39253	1.72190
1.39333	1.71868
1.39736	1.71304
1.39656	1.71304
1.39495	1.71062
1.40059	1.70901
1.40059	1.70821
1.40059	1.70740
1.40059	1.70579
1.40139	1.71062
1.40139	1.70659
1.40059	1.70740
1.40139	1.70901
1.39817	1.70982
1.39495	1.70982
1.39333	1.71062
1.39172	1.71465
1.39253	1.71304
1.39011	1.71949
1.39092	1.72352
1.39092	1.72432
1.39172	1.72916
1.39333	1.73077
1.39253	1.73238
1.39414	1.73641
1.39575	1.74044
1.39817	1.74527
1.40139	1.74447
1.40059	1.74930
1.40059	1.74930
1.39978	1.74930
1.40139	1.74930
1.40139	1.74850
1.39656	1.75011
1.39656	1.74930
1.39817	1.74769
1.39736	1.74689
1.40059	1.74366
1.40059	1.74527
1.40059	1.74044
1.39817	1.73560
1.40059	1.73480
1.40381	1.73238
1.40300	1.73077
1.39978	1.72916
1.40220	1.72674
1.40139	1.72432
1.40381	1.72352
1.40462	1.72352
1.40462	1.72513
1.40381	1.72352
1.40542	1.72432
1.40542	1.72432
1.40542	1.72755
1.40542	1.74930
1.40542	1.73399
1.40623	1.73560
1.40623	1.73802
1.40623	1.74366
1.40703	1.74769
1.40623	1.74930
1.40623	1.75414
1.40542	1.75333
1.40542	1.76462
1.40462	1.76945
1.40542	1.77187
1.40381	1.77348
1.40542	1.77590
1.40139	1.77832
1.40059	1.77993
1.40139	1.78073
1.39817	1.78234
1.40220	1.78073
1.39736	1.78396
1.39817	1.78234
1.40139	1.77751
1.40059	1.77670
1.40300	1.77509
1.39817	1.77509
1.39897	1.77348
1.39495	1.77026
1.39414	1.76864
1.39414	1.76381
1.39253	1.76300
1.39253	1.76300
1.39092	1.75656
1.39253	1.75495
1.39414	1.75172
1.39172	1.75333
1.39172	1.75253
1.39092	1.75172
1.39011	1.75495
1.38850	1.75333
1.38447	1.75736
1.38366	1.76300
1.38286	1.76462
1.38125	1.76784
1.38366	1.77026
1.37963	1.77509
1.38205	1.77590
1.38205	1.77912
1.38205	1.78396
1.38447	1.78879
1.38527	1.79201
1.38930	1.79363
1.38850	1.79846
1.38850	1.80088
1.39092	1.80088
1.38850	1.80410
1.38850	1.80330
1.38447	1.80491
1.38447	1.80652
1.38527	1.80168
1.38447	1.80330
1.38527	1.80491
1.38608	1.80168
1.38527	1.80088
1.38769	1.79846
1.38447	1.79766
1.38125	1.79363
1.38044	1.78799
1.37963	1.78799
1.37963	1.78718
1.37722	1.78234
1.37480	1.78396
1.37238	1.77993
1.37319	1.77912
1.37560	1.77912
1.37560	1.77912
1.37802	1.77912
1.37963	1.77912
1.37802	1.78073
1.37963	1.78315
1.37802	1.78637
1.37883	1.79121
1.37883	1.79201
1.37963	1.79927
1.38366	1.80088
1.38205	1.80491
1.38205	1.80974
1.38125	1.81377
1.38286	1.81700
1.38689	1.82183
1.38527	1.82667
1.38769	1.83150
1.39172	1.83795
1.39253	1.83956
1.39736	1.84440
1.39817	1.84681
1.39817	1.84762
1.39495	1.84842
1.39495	1.85004
1.39736	1.85165
1.39414	1.85165
1.39495	1.85084
1.39495	1.85084
1.39414	1.84842
1.39656	1.84520
1.39495	1.84037
1.39495	1.84117
1.39333	1.83795
1.39253	1.83714
1.39495	1.83473
1.39414	1.83150
1.39333	1.82989
1.39253	1.82667
1.39253	1.82667
1.39575	1.82586
1.39333	1.82667
1.39333	1.82667
1.39414	1.82747
1.39414	1.82747
1.39575	1.83150
1.39253	1.83311
1.39253	1.83714
1.39253	1.84198
1.39172	1.84520
1.39253	1.84842
1.39172	1.85407
1.39092	1.85971
1.39253	1.86051
1.39253	1.86938
1.39253	1.87341
1.39092	1.87824
1.39253	1.87985
1.39092	1.88549
1.38850	1.88872
1.38769	1.89194
1.38447	1.89516
1.38689	1.89919
1.38769	1.90000
1.38850	1.90322
1.39172	1.90403
1.39172	1.90403
1.39092	1.90403
1.39011	1.90403
1.39011	1.90403
1.39092	1.90161
1.38769	1.90242
1.38689	1.90161
1.38689	1.90000
1.38850	1.90161
1.39011	1.90081
1.38850	1.90322
1.38850	1.90161
1.38689	1.90403
1.38447	1.90403
1.38366	1.90645
1.38850	1.90967
1.38527	1.91531
1.38930	1.91773
1.39011	1.92256
1.39172	1.92982
1.39011	1.93304
1.39011	1.94190
1.39011	1.94996
1.38850	1.95560
1.39172	1.96689
1.39011	1.97736
1.38930	1.98139
1.39011	1.99026
1.39172	1.99912
1.39253	2.00637
1.39253	2.01443
1.39253	2.02168
1.39092	2.02894
1.38527	2.03297
1.38689	2.03780
1.38366	2.04586
1.38527	2.04989
1.38527	2.05473
1.38527	2.05795
1.38930	2.05875
1.38527	2.05956
1.38527	2.06037
1.38205	2.05956
1.38366	2.05875
1.38689	2.05875
1.38689	2.05795
1.38930	2.05634
1.39172	2.05634
1.39253	2.05311
1.39253	2.04747
1.39172	2.04747
1.39011	2.04505
1.39092	2.04344
1.38850	2.04183
1.39092	2.04022
1.38850	2.04344
1.39011	2.04425
1.39011	2.04183
1.39172	2.04344
1.39172	2.04667
1.39011	2.05070
1.38850	2.05392
1.38850	2.05634
1.38769	2.06037
1.38930	2.06278
1.38769	2.06923
1.38930	2.07487
1.39011	2.07729
1.39092	2.08212
1.39333	2.08454
1.39092	2.08857
1.38769	2.09421
1.39011	2.09744
1.38930	2.10388
1.39011	2.10227
1.39011	2.10630
1.39172	2.10872
1.39172	2.10791
1.39172	2.10791
1.39172	2.10469
1.38850	2.10308
1.38769	2.10066
1.38850	2.09663
1.38769	2.09421
1.39092	2.08857
1.39092	2.08454
1.39092	2.08051
1.39011	2.07407
1.39092	2.07084
1.39253	2.06440
1.38850	2.05956
1.38769	2.05553
1.38527	2.04989
1.38689	2.04344
1.38527	2.03861
1.38527	2.03297
1.38366	2.03297
1.38447	2.02652
1.38447	2.02249
1.38850	2.02007
1.38769	2.01927
1.39011	2.01443
1.39092	2.01201
1.39414	2.01121
1.39495	2.00960
1.39333	2.00799
1.39253	2.00718
1.39172	2.00799
1.39011	2.00799
1.39011	2.00637
1.38769	2.00557
1.38850	2.00637
1.39092	1.99993
1.39172	1.99912
1.39414	1.99509
1.39333	1.99429
1.39897	1.98864
1.39736	1.98381
1.39817	1.98059
1.39978	1.97414
1.39253	1.96850
1.39253	1.96286
1.39253	1.95641
1.39253	1.95077
1.39333	1.94190
1.39495	1.93143
1.39736	1.92740
1.39736	1.91692
1.39495	1.90967
1.39575	1.90403
1.39333	1.89678
1.39253	1.88872
1.39253	1.87905
1.39253	1.87663
1.39333	1.86777
1.39253	1.86535
1.39172	1.85971
1.39333	1.85326
1.39575	1.85245
1.39817	1.84681
1.39495	1.84520
1.39495	1.84198
1.39495	1.83875
1.39253	1.83795
1.39414	1.83473
1.39172	1.83553
1.39253	1.83634
1.39495	1.83553
1.39575	1.83392
1.39817	1.83150
1.39656	1.83231
1.39495	1.83231
1.39414	1.82828
1.39333	1.83392
1.39495	1.82828
1.39495	1.82667
1.39656	1.82667
1.39656	1.82586
1.39817	1.82183
1.39978	1.81700
1.39495	1.81458
1.39414	1.81216
1.39172	1.80571
1.39172	1.80168
1.39253	1.79524
1.39253	1.79363
1.39253	1.78637
1.39092	1.77912
1.39172	1.77590
1.39092	1.77106
1.38769	1.76703
1.38286	1.75736
1.38366	1.75333
1.38044	1.74930
1.38044	1.74769
1.37963	1.74447
1.37963	1.74125
1.37963	1.73963
1.37963	1.74044
1.38447	1.73883
1.38205	1.74044
1.38689	1.74044
1.38689	1.74044
1.38850	1.74044
1.39092	1.74527
1.38769	1.74850
1.38930	1.74930
1.38366	1.75333
1.38366	1.75414
1.38286	1.75736
1.37963	1.76300
1.37963	1.76381
1.37963	1.76703
1.38044	1.77106
1.38205	1.77026
1.38205	1.77187
1.38205	1.77106
1.38366	1.77187
1.38205	1.77267
1.38366	1.76945
1.37963	1.76703
1.38044	1.76300
1.38125	1.75656
1.38205	1.75172
1.38447	1.74930
1.38366	1.74850
1.38205	1.74205
1.38205	1.73722
1.38044	1.73641
1.38366	1.73077
1.38205	1.72593
1.38769	1.72352
1.38689	1.72110
1.39011	1.71788
1.39253	1.71304
1.39253	1.71304
1.39736	1.71304
1.39897	1.71062
1.40462	1.71143
1.40784	1.71062
1.40945	1.71062
1.41348	1.71223
1.41912	1.71385
1.41912	1.71465
1.42234	1.72271
1.42557	1.72352
1.42960	1.72674
1.43121	1.72916
1.43201	1.73158
1.44330	1.73399
1.44813	1.73963
1.45700	1.74125
1.47070	1.74527
1.48278	1.74527
1.49729	1.74930
1.50696	1.74930
1.52066	1.74930
1.53355	1.74930
1.54242	1.75011
1.54645	1.74930
1.54000	1.74689
1.52066	1.74850
1.48359	1.74366
1.43363	1.74125
1.37802	1.73883
1.31678	1.73560
1.25634	1.73077
1.20073	1.72916
1.16286	1.72352
1.13707	1.72271
1.12659	1.71626
1.12901	1.71143
1.14271	1.71143
1.16044	1.70982
1.18864	1.70740
1.22491	1.70740
1.26842	1.70498
1.30630	1.70337
1.34982	1.70176
1.38527	1.70176
1.41912	1.70337
1.44733	1.70821
1.47231	1.70901
1.48842	1.71062
1.49971	1.71465
1.50454	1.71788
1.50051	1.72110
1.49487	1.72513
1.48278	1.72593
1.46828	1.73238
1.45297	1.73399
1.43685	1.74125
1.42879	1.74527
1.42234	1.74527
1.42396	1.74930
1.42637	1.74930
1.43201	1.75495
1.44168	1.75495
1.44168	1.75333
1.44007	1.75172
1.43443	1.75092
1.42960	1.75011
1.42073	1.74930
1.41026	1.74930
1.40462	1.74447
1.39736	1.74205
1.39253	1.74044
1.39172	1.73560
1.39092	1.73399
1.38850	1.72916
1.38366	1.72916
1.38125	1.72352
1.37963	1.72352
1.37399	1.72190
1.37158	1.72271
1.36755	1.72110
1.36513	1.72029
1.36271	1.72110
1.35788	1.72352
1.36190	1.72352
1.35788	1.72513
1.35626	1.72755
1.35546	1.73077
1.35385	1.73560
1.35465	1.73722
1.35304	1.74205
1.35465	1.74930
1.35626	1.75092
1.35626	1.75414
1.36190	1.76300
1.36271	1.76542
1.36916	1.77026
1.37077	1.77429
1.37238	1.77590
1.37641	1.77993
1.37560	1.78154
1.37722	1.78154
1.37963	1.78396
1.37963	1.78315
1.38366	1.78234
1.38850	1.77912
1.39092	1.77832
1.39253	1.77670
1.39333	1.77509
1.39253	1.77267
1.39253	1.76703
1.39092	1.76462
1.38850	1.75736
1.38689	1.75172
1.38850	1.74930
1.38850	1.74930
1.38769	1.74527
1.38689	1.74366
1.38608	1.74044
1.38769	1.73802
1.38769	1.73883
1.38527	1.73560
1.38527	1.73641
1.38689	1.73802
1.38689	1.73883
1.38366	1.74044
1.38125	1.74366
1.38205	1.74608
1.37963	1.74930
1.37963	1.74930
1.37963	1.75414
1.37963	1.75575
1.37963	1.76381
1.38125	1.76462
1.38527	1.77348
1.38850	1.77429
1.39092	1.77670
1.39253	1.77993
1.39172	1.78315
1.39172	1.78476
1.39172	1.78799
1.39092	1.78799
1.39172	1.78718
1.39253	1.79040
1.39253	1.78879
1.39253	1.78799
1.39253	1.78718
1.39172	1.78557
1.39172	1.78234
1.39253	1.77912
1.39172	1.77912
1.39172	1.77912
1.39253	1.77751
1.39253	1.77590
1.39414	1.77429
1.39253	1.77509
1.39172	1.77267
1.39092	1.77509
1.38769	1.77509
1.39011	1.77509
1.38527	1.77751
1.39011	1.77912
1.39011	1.78315
1.39011	1.78396
1.39253	1.78799
1.39253	1.78879
1.39414	1.79524
1.39575	1.80088
1.39495	1.80168
1.39817	1.80813
1.39978	1.81377
1.39897	1.81538
1.39817	1.82264
1.39736	1.82747
1.39656	1.82989
1.39495	1.83634
1.39253	1.84198
1.39253	1.84681
1.39172	1.85084
1.39253	1.85004
1.39253	1.85245
1.39092	1.85648
1.39092	1.85648
1.39253	1.85729
1.39253	1.85407
1.39092	1.85568
1.39172	1.85245
1.39172	1.85245
1.39253	1.85084
1.39253	1.84762
1.39253	1.84359
1.39414	1.83956
1.39575	1.83473
1.39656	1.83150
1.40139	1.82828
1.40059	1.82667
1.39897	1.82425
1.39656	1.82344
1.39414	1.82103
1.39414	1.81861
1.39333	1.81861
1.39253	1.81941
1.39253	1.82264
1.39333	1.81538
1.39736	1.82103
1.39656	1.82425
1.39333	1.82667
1.39817	1.82667
1.39333	1.83231
1.39656	1.83634
1.39333	1.84037
1.39414	1.84520
1.39333	1.85004
1.39253	1.85245
1.39414	1.85648
1.39333	1.86132
1.39575	1.86535
1.39495	1.86938
1.39817	1.87179
1.40139	1.87099
1.39978	1.87582
1.40059	1.87824
1.40059	1.87744
1.40300	1.87824
1.40300	1.87582
1.40139	1.87663
1.40139	1.87260
1.39817	1.86938
1.39817	1.86777
1.39817	1.86535
1.39253	1.86374
1.39011	1.86051
1.38850	1.85487
1.38850	1.85245
1.39172	1.84923
1.39011	1.84842
1.39011	1.84681
1.39172	1.84359
1.39253	1.84037
1.39495	1.83875
1.39817	1.84117
1.40059	1.83956
1.40220	1.84037
1.40462	1.84037
1.40462	1.84198
1.40059	1.84359
1.39656	1.84520
1.39414	1.85004
1.39253	1.85245
1.39333	1.85407
1.39253	1.86132
1.39333	1.86293
1.39495	1.86615
1.39575	1.87018
1.39817	1.87421
1.39495	1.87824
1.39414	1.87824
1.39414	1.88630
1.39172	1.88388
1.39414	1.88872
1.39253	1.89033
1.39333	1.89194
1.39414	1.89194
1.39495	1.89275
1.39656	1.89033
1.39253	1.88872
1.39253	1.88549
1.39253	1.88388
1.39172	1.87824
1.39253	1.87260
1.39011	1.87260
1.39011	1.86777
1.39172	1.86454
1.39253	1.85729
1.39253	1.85326
1.39253	1.85165
1.39253	1.84762
1.39736	1.84198
1.39817	1.83956
1.39656	1.83875
1.39495	1.83634
1.39253	1.83553
1.39172	1.83553
1.38850	1.83473
1.38850	1.83473
1.38850	1.83875
1.38769	1.84037
1.39092	1.84117
1.39172	1.84762
1.39253	1.85004
1.39092	1.85245
1.39011	1.85245
1.38689	1.86051
1.38366	1.86374
1.38366	1.86615
1.38125	1.87099
1.37963	1.87341
1.37883	1.87421
1.37963	1.87824
1.38125	1.87824
1.37963	1.87985
1.37963	1.87985
1.37963	1.87905
1.37883	1.87824
1.37883	1.87582
1.37399	1.87502
1.37238	1.87099
1.36996	1.86615
1.37238	1.86212
1.37560	1.85487
1.37802	1.85165
1.37963	1.84842
1.38044	1.83956
1.38366	1.83634
1.39011	1.82747
1.38850	1.82425
1.38689	1.81861
1.38447	1.81377
1.38044	1.81136
1.38044	1.80571
1.37883	1.80491
1.37560	1.80249
1.37560	1.80088
1.37560	1.80007
1.37641	1.80088
1.37560	1.80088
1.37641	1.80168
1.37802	1.80168
1.37963	1.80652
1.38205	1.80652
1.38205	1.81216
1.38527	1.81458
1.38850	1.82183
1.39253	1.82425
1.39253	1.82667
1.39253	1.83070
1.39333	1.83392
1.39253	1.83875
1.39253	1.84117
1.39333	1.83956
1.39172	1.84440
1.39253	1.84681
1.39333	1.84842
1.39414	1.84681
1.39736	1.84278
1.39656	1.84520
1.39817	1.84117
1.39978	1.83875
1.39978	1.83231
1.40220	1.83070
1.40220	1.82747
1.40139	1.82425
1.40139	1.82264
1.40139	1.81780
1.40542	1.81377
1.40542	1.81216
1.40542	1.80894
1.40542	1.80088
1.40381	1.80088
1.40542	1.79927
1.39978	1.80088
1.39575	1.79685
1.39495	1.79524
1.39333	1.79282
1.39172	1.79363
1.39656	1.79685
1.39978	1.79604
1.40139	1.79927
1.40300	1.80088
1.40139	1.80088
1.39817	1.80330
1.39495	1.80491
1.39333	1.80813
1.39253	1.81297
1.39817	1.81377
1.39495	1.81538
1.39253	1.82183
1.39414	1.82183
1.39253	1.82425
1.39172	1.82425
1.38850	1.82828
1.39092	1.82667
1.39333	1.82667
1.39253	1.82667
1.39575	1.82586
1.39736	1.82586
1.39414	1.82505
1.39656	1.82586
1.39656	1.82022
1.39817	1.81780
1.39575	1.81619
1.39253	1.81377
1.39253	1.81136
1.39253	1.80894
1.39414	1.80330
1.39253	1.80249
1.39253	1.80088
1.39253	1.79927
1.39172	1.79604
1.39333	1.79685
1.39092	1.79685
1.39011	1.79524
1.38850	1.79604
1.39092	1.79685
1.39253	1.79685
1.39011	1.80007
1.39011	1.79927
1.39092	1.80088
1.38850	1.80249
1.38930	1.80249
1.38850	1.80813
1.38608	1.81136
1.38850	1.81377
1.38769	1.81619
1.39092	1.81861
1.38769	1.82183
1.38769	1.82667
1.38850	1.82747
1.38527	1.82828
1.39011	1.82908
1.39092	1.83231
1.38930	1.83473
1.38527	1.83553
1.38447	1.83231
1.38366	1.83070
1.38366	1.83392
1.38366	1.82828
1.38366	1.83070
1.38447	1.82667
1.38689	1.82425
1.38447	1.82183
1.38366	1.81780
1.38205	1.81538
1.38044	1.81538
1.37963	1.81136
1.37963	1.81055
1.37963	1.80652
1.37963	1.80410
1.38044	1.80249
1.38527	1.80249
1.38447	1.80249
1.38527	1.80168
1.38527	1.79927
1.38689	1.80088
1.38689	1.80168
1.38366	1.80330
1.38205	1.80168
1.38205	1.80813
1.38447	1.80813
1.38769	1.80894
1.38527	1.81297
1.38689	1.81619
1.38447	1.82103
1.38366	1.82264
1.38447	1.82264
1.38286	1.82667
1.37963	1.82828
1.37963	1.83231
1.37963	1.83473
1.37963	1.83714
1.38044	1.83795
1.38044	1.84198
1.38044	1.84359
1.38125	1.84440
1.38689	1.84359
1.38850	1.84440
1.39172	1.84520
1.39253	1.84520
1.39253	1.84520
1.39495	1.84198
1.39333	1.84198
1.39172	1.84037
1.38850	1.83956
1.38366	1.83795
1.38608	1.83795
1.38527	1.83553
1.38527	1.83473
1.38769	1.83553
1.39011	1.83473
1.39253	1.83231
1.39253	1.83473
1.39333	1.83392
1.39495	1.83473
1.39092	1.83473
1.39253	1.83714
1.38769	1.83875
1.38447	1.84037
1.38689	1.84359
1.38527	1.84601
1.38850	1.84762
1.38527	1.85245
1.38447	1.85245
1.38769	1.85729
1.38930	1.86051
1.39253	1.86293
1.39253	1.86535
1.39253	1.86535
1.39333	1.87018
1.39253	1.87099
1.39333	1.87260
1.39092	1.87582
1.39172	1.87582
1.39092	1.87582
1.39172	1.87663
1.39172	1.87421
1.39253	1.87260
1.39414	1.87341
1.39333	1.87018
1.39253	1.86777
1.39011	1.86535
1.39172	1.86374
1.39092	1.85971
1.38850	1.85648
1.39011	1.85487
1.38930	1.85245
1.39011	1.85084
1.38850	1.85004
1.38769	1.84842
1.38850	1.84762
1.38850	1.84359
1.39172	1.84440
1.39414	1.84278
1.39414	1.84520
1.39817	1.84681
1.39817	1.84762
1.39817	1.84842
1.39817	1.85084
1.39656	1.85245
1.39656	1.85245
1.39736	1.85810
1.39817	1.86132
1.39978	1.86535
1.40059	1.86615
1.39736	1.87421
1.39736	1.87663
1.39656	1.87824
1.39817	1.88147
1.39495	1.88549
1.39575	1.88630
1.39978	1.89114
1.40139	1.89275
1.40139	1.89516
1.40462	1.89839
1.40139	1.89839
1.39817	1.90000
1.39736	1.89839
1.39736	1.89839
1.39978	1.89839
1.39656	1.89516
1.39575	1.89516
1.39656	1.89114
1.39414	1.89033
1.39333	1.88711
1.39253	1.88711
1.39172	1.88549
1.39092	1.88147
1.39253	1.87905
1.39495	1.87905
1.39817	1.87905
1.40220	1.87824
1.40381	1.88549
1.40542	1.87824
1.40462	1.87905
1.40220	1.87824
1.40059	1.88227
1.39414	1.88147
1.39253	1.88388
1.39333	1.88791
1.39092	1.89114
1.39011	1.89355
1.38689	1.89839
1.38850	1.90322
1.38930	1.90322
1.39011	1.90564
1.38850	1.90967
1.38689	1.91531
1.38689	1.91692
1.38850	1.91692
1.38769	1.92015
1.38930	1.92095
1.38930	1.92498
1.39172	1.92418
1.39172	1.92498
1.39092	1.92579
1.39011	1.92015
1.39092	1.92095
1.39011	1.91934
1.38769	1.91692
1.38689	1.91289
1.38850	1.90725
1.39092	1.90403
1.39092	1.90242
1.39253	1.90000
1.39575	1.89275
1.39414	1.89033
1.39656	1.88791
1.39333	1.88227
1.39092	1.88227
1.39092	1.87824
1.38769	1.87744
1.38850	1.87824
1.39011	1.87824
1.39253	1.87824
1.39333	1.87824
1.39575	1.87824
1.39817	1.87824
1.39736	1.88308
1.39656	1.88630
1.39736	1.89114
1.39736	1.89597
1.39978	1.90161
1.40059	1.90484
1.39817	1.90806
1.40059	1.91531
1.40059	1.91692
1.39656	1.92659
1.39414	1.92901
1.39333	1.92982
1.39333	1.93385
1.39333	1.93546
1.39333	1.93868
1.39253	1.94029
1.39253	1.94110
1.39011	1.94432
1.38850	1.93707
1.38205	1.94029
1.38044	1.93546
1.37963	1.93385
1.38286	1.92982
1.38689	1.92579
1.38689	1.92256
1.38850	1.91692
1.39092	1.91289
1.39011	1.90967
1.39253	1.90403
1.38769	1.90161
1.38366	1.89597
1.38205	1.89194
1.38044	1.88872
1.38366	1.88388
1.38125	1.88308
1.38205	1.88066
1.38205	1.87905
1.38125	1.87824
1.38366	1.87824
1.38205	1.87824
1.38366	1.87905
1.38689	1.87985
1.38447	1.88227
1.38850	1.88549
1.38850	1.88630
1.38850	1.88952
1.38689	1.89516
1.38769	1.89839
1.38689	1.89839
1.38205	1.90322
1.38125	1.90403
1.37963	1.90645
1.38044	1.90645
1.38286	1.90886
1.38205	1.91128
1.38527	1.91209
1.38769	1.91209
1.38850	1.91209
1.39172	1.90806
1.39172	1.90645
1.39253	1.90403
1.39333	1.90242
1.39333	1.89919
1.39253	1.89275
1.39253	1.89194
1.39253	1.88711
1.39172	1.88227
1.39011	1.87824
1.39011	1.87744
1.38850	1.87260
1.39092	1.86938
1.39172	1.86615
1.39253	1.86374
1.39333	1.86132
1.39253	1.85971
1.39333	1.86051
1.39333	1.85648
1.39333	1.85648
1.39736	1.85729
1.39736	1.85810
1.39736	1.86212
1.39495	1.86212
1.39414	1.86293
1.39495	1.86454
1.39333	1.86696
1.39092	1.86857
1.38930	1.87421
1.39092	1.87744
1.39253	1.87824
1.39253	1.88227
1.39253	1.88469
1.39333	1.88711
1.39333	1.88952
1.39414	1.88872
1.39172	1.89033
1.39253	1.88711
1.39253	1.88952
1.39092	1.88711
1.39253	1.88308
1.38769	1.88388
1.38689	1.87905
1.38447	1.87582
1.38447	1.87260
1.38608	1.86615
1.38850	1.86293
1.39011	1.85810
1.39253	1.85568
1.39333	1.85004
1.39495	1.84520
1.39253	1.84037
1.39253	1.83473
1.39253	1.83231
1.39253	1.82828
1.39495	1.82667
1.39495	1.82667
1.39414	1.82667
1.39817	1.82505
1.39495	1.82747
1.39495	1.82667
1.39253	1.82747
1.39172	1.82989
1.39172	1.83473
1.39253	1.83714
1.39656	1.83956
1.39495	1.84762
1.39575	1.85084
1.39656	1.85245
1.39495	1.85487
1.39736	1.86293
1.39656	1.86535
1.39495	1.86938
1.39333	1.87341
1.39575	1.87341
1.39656	1.87824
1.39656	1.87824
1.39656	1.87905
1.39656	1.87824
1.39495	1.87905
1.39656	1.87985
1.39333	1.87824
1.39253	1.87663
1.39253	1.87341
1.39172	1.86938
1.39172	1.86777
1.39092	1.86454
1.38850	1.85971
1.38689	1.85245
1.38769	1.85245
1.38689	1.84762
1.38447	1.84359
1.38527	1.84359
1.38527	1.83714
1.38930	1.83956
1.39172	1.82908
1.38850	1.82989
1.38769	1.82747
1.38769	1.82828
1.38769	1.82908
1.39172	1.82667
1.39172	1.82908
1.39333	1.83070
1.39495	1.83231
1.39656	1.83553
1.39978	1.83875
1.39817	1.84117
1.39495	1.84762
1.39575	1.85165
1.39172	1.85407
1.39011	1.85648
1.39011	1.86293
1.38527	1.86132
1.38527	1.86535
1.38689	1.86938
1.39092	1.87260
1.39172	1.87341
1.39253	1.86938
1.39495	1.87582
1.39736	1.87341
1.40139	1.87260
1.39817	1.87341
1.39978	1.87099
1.39736	1.86696
1.39495	1.86454
1.39978	1.85568
1.39656	1.85326
1.39736	1.85165
1.39656	1.84198
1.39736	1.83956
1.40059	1.83070
1.39817	1.82667
1.39897	1.82425
1.39978	1.81619
1.40059	1.81377
1.40300	1.80571
1.40139	1.80330
1.40139	1.80088
1.40059	1.79282
1.40139	1.79121
1.40462	1.78879
1.40059	1.78718
1.39978	1.78557
1.39656	1.78799
1.39495	1.78879
1.39333	1.79040
1.39172	1.79604
1.39172	1.80088
1.39172	1.80652
1.39253	1.81377
1.39253	1.82103
1.39172	1.83070
1.39253	1.84198
1.39253	1.85326
1.39333	1.86535
1.39656	1.87824
1.39495	1.89275
1.39495	1.90806
1.39656	1.92579
1.39656	1.94271
1.39656	1.95802
1.39495	1.97897
1.39575	1.99993
1.39495	2.02168
1.39495	2.04586
1.39978	2.06923
1.40059	2.09502
1.40059	2.12322
1.39817	2.15626
1.40139	2.18930
1.40462	2.22396
1.40059	2.26022
1.40139	2.29810
1.40300	2.34000
1.40139	2.38110
1.40381	2.42300
1.39817	2.46733
1.40059	2.51487
1.39817	2.56242
1.39736	2.61319
1.39414	2.66234
1.39011	2.71231
1.38689	2.75824
1.38205	2.80901
1.38044	2.85736
1.38205	2.90652
1.37963	2.95245
1.37963	2.99436
1.37963	3.00000
1.37963	3.00000
1.37883	3.00000
1.37399	3.00000
1.37158	3.00000
1.36835	3.00000
1.36674	3.00000
1.37077	3.00000
1.36916	3.00000
1.37158	3.00000
1.36916	3.00000
1.36916	3.00000
1.36835	3.00000
1.36432	3.00000
1.36432	3.00000
1.35949	3.00000
1.35868	3.00000
1.35949	3.00000
1.35788	3.00000
1.36190	2.96132
1.36110	2.89766
1.36271	2.83158
1.36674	2.75502
1.36513	2.67766
1.36432	2.59788
1.36513	2.50842
1.36352	2.42139
1.36271	2.33355
1.36271	2.24652
1.36271	2.15788
1.36513	2.06923
1.36593	1.98300
1.36835	1.90403
1.37077	1.82667
1.37158	1.75172
1.37560	1.68564
1.37802	1.62762
1.38044	1.56960
1.37963	1.52769
1.38044	1.49143
1.38044	1.46081
1.38205	1.43905
1.38527	1.41648
1.38447	1.40842
1.38689	1.40198
1.38930	1.39956
1.39092	1.40278
1.39253	1.40842
1.39092	1.41407
1.39172	1.42454
1.39253	1.43663
1.39414	1.44630
1.39575	1.45678
1.39253	1.46967
1.39495	1.48095
1.39656	1.49143
1.39817	1.50271
1.40139	1.50835
1.39817	1.51722
1.40300	1.52205
1.40623	1.53011
1.41590	1.53414
1.42960	1.54059
1.44007	1.54300
1.45458	1.54703
1.46908	1.55106
1.48278	1.55026
1.49326	1.55348
1.49568	1.55590
1.49407	1.55993
1.48842	1.56476
1.48037	1.56879
1.46989	1.57121
1.45700	1.58007
1.44733	1.58652
1.43685	1.59458
1.43040	1.60505
1.42637	1.61070
1.41590	1.62278
1.40945	1.63729
1.40139	1.64696
1.39414	1.65905
1.38850	1.67194
1.37963	1.68645
1.37238	1.69934
1.36271	1.71143
1.35304	1.72352
1.34337	1.73399
1.33048	1.74930
1.32000	1.75817
1.31114	1.77267
1.30227	1.78073
1.29502	1.78718
1.28696	1.79846
1.27971	1.80249
1.27648	1.80894
1.27407	1.81377
1.27326	1.81861
1.27165	1.82264
1.27407	1.82505
1.27648	1.82667
1.28132	1.82747
1.28938	1.83070
1.29341	1.83392
1.30227	1.83392
1.31355	1.83875
1.32564	1.83875
1.33934	1.84037
1.34821	1.84440
1.36432	1.84842
1.37802	1.84842
1.38850	1.85245
1.40300	1.85326
1.41106	1.85810
1.42315	1.86293
1.43604	1.86535
1.45136	1.87018
1.46264	1.87663
1.47553	1.87985
1.48520	1.88630
1.49487	1.89275
1.50374	1.89919
1.50857	1.90403
1.50857	1.90806
1.50696	1.91451
1.49810	1.91692
1.48842	1.92256
1.48278	1.92579
1.46667	1.92982
1.44894	1.92982
1.43524	1.93788
1.42234	1.93465
1.41348	1.94029
1.40542	1.93626
1.39656	1.93949
1.39253	1.93707
1.39253	1.93707
1.39011	1.93223
1.39172	1.93223
1.39092	1.92982
1.38850	1.92982
1.39092	1.92740
1.39011	1.92256
1.38527	1.92176
1.38366	1.91934
1.38125	1.91773
1.37963	1.91692
1.37802	1.91692
1.37560	1.91612
1.37077	1.91612
1.37158	1.91692
1.36755	1.91692
1.36755	1.91612
1.36513	1.91853
1.36271	1.91853
1.36110	1.92176
1.35949	1.92821
1.36190	1.92982
1.35626	1.93465
1.35707	1.93868
1.35465	1.94432
1.35385	1.94755
1.35546	1.95238
1.35465	1.95560
1.35788	1.95722
1.36352	1.96366
1.36916	1.96769
1.37883	1.96850
1.38125	1.97253
1.38527	1.97253
1.39172	1.97414
1.39253	1.97575
1.39817	1.97253
1.40139	1.97253
1.40542	1.97253
1.40623	1.96850
1.40945	1.96689
1.41348	1.96366
1.41429	1.95963
1.41348	1.95560
1.41509	1.95399
1.41267	1.94755
1.41429	1.94271
1.41348	1.94110
1.41509	1.93546
1.41348	1.93385
1.41106	1.93143
1.41429	1.92982
1.41026	1.92982
1.40623	1.92901
1.40623	1.92982
1.40542	1.93062
1.40542	1.92982
1.40300	1.93062
1.40059	1.93707
1.39656	1.94271
1.39656	1.94432
1.39656	1.95238
1.39333	1.95963
1.39092	1.96447
1.38930	1.97011
1.38527	1.97575
1.38769	1.98139
1.38447	1.98864
1.38286	1.99348
1.38366	1.99993
1.38044	2.00476
1.38044	2.00718
1.37883	2.01363
1.37802	2.01604
1.37722	2.01846
1.37802	2.01846
1.37963	2.01766
1.37963	2.01927
1.38125	2.01766
1.37963	2.01282
1.38205	2.00960
1.38366	2.00718
1.38366	2.00637
1.38366	2.00154
1.38689	1.99429
1.38850	1.99106
1.39253	1.98462
1.39172	1.98139
1.39172	1.97736
1.39172	1.97414
1.39253	1.97092
1.39656	1.97011
1.39495	1.96850
1.39495	1.96689
1.39575	1.96769
1.39495	1.96769
1.39656	1.96769
1.39333	1.97011
1.39333	1.97172
1.39495	1.97575
1.39495	1.97978
1.39414	1.98220
1.39333	1.99026
1.39253	1.99509
1.39172	2.00154
1.39172	2.00718
1.39253	2.01040
1.39253	2.01846
1.39333	2.02571
1.39333	2.03136
1.39253	2.03297
1.39253	2.03538
1.38769	2.04183
1.38447	2.04425
1.38447	2.04667
1.38366	2.04989
1.38850	2.04747
1.38850	2.04828
1.39092	2.04828
1.39253	2.04505
1.39092	2.04344
1.39172	2.03780
1.38930	2.03458
1.39092	2.03297
1.39011	2.02894
1.38850	2.02249
1.39172	2.01927
1.38850	2.01524
1.38850	2.00960
1.38850	2.00718
1.38930	2.00315
1.39253	1.99993
1.39253	1.99912
1.39495	1.99429
1.39575	1.99509
1.39656	1.99429
1.39817	1.99106
1.39736	1.99429
1.39736	1.99832
1.40059	1.99590
1.40300	1.99832
1.40462	2.00476
1.40381	2.00718
1.40300	2.00799
1.40300	2.01524
1.40462	2.02007
1.40542	2.02330
1.40300	2.02733
1.40462	2.03297
1.40381	2.03619
1.40300	2.03700
1.40139	2.04344
1.39817	2.04586
1.39495	2.04747
1.39172	2.04828
1.39253	2.05150
1.39495	2.04989
1.39253	2.05150
1.39333	2.04989
1.39333	2.04747
1.39495	2.04344
1.39736	2.04022
1.39575	2.03458
1.39414	2.03377
1.39414	2.02974
1.39414	2.04989
1.39575	2.02410
1.39172	2.02249
1.39172	2.01927
1.38850	2.01846
1.38769	2.01685
1.38850	2.00960
1.38366	2.01121
1.38366	2.01121
1.38125	2.01121
1.37963	2.01201
1.37802	2.01201
1.37963	2.01121
1.38044	2.01927
1.38205	2.01846
1.38205	2.02168
1.38205	2.02571
1.38044	2.03055
1.37963	2.03377
1.37963	2.04103
1.38044	2.04505
1.38205	2.04989
1.37963	2.05634
1.37963	2.05956
1.38125	2.06440
1.38044	2.06923
1.38125	2.07084
1.38125	2.07245
1.38205	2.07407
1.38286	2.07729
1.38527	2.07890
1.38850	2.07568
1.38850	2.07729
1.38850	2.07568
1.39092	2.07245
1.39011	2.06923
1.39253	2.06601
1.39092	2.06359
1.39092	2.05875
1.38769	2.05473
1.38930	2.04989
1.38769	2.04425
1.38366	2.04264
1.38205	2.03700
1.38286	2.03458
1.38044	2.03297
1.38205	2.03297
1.37963	2.03297
1.38044	2.03055
1.38125	2.03055
1.38286	2.03297
1.38447	2.03377
1.38527	2.03780
1.38769	2.04505
1.39011	2.04667
1.39253	2.05150
1.39495	2.05875
1.39333	2.06198
1.39495	2.07165
1.39495	2.07407
1.39253	2.08374
1.39414	2.08696
1.39333	2.09582
1.39172	2.10308
1.39333	2.10872
1.39414	2.11275
1.39897	2.11758
1.39897	2.12242
1.39978	2.12564
1.40059	2.12725
1.39736	2.13128
1.40139	2.12806
1.39736	2.13128
1.39253	2.13128
1.39414	2.12886
1.39495	2.12725
1.39656	2.12322
1.39414	2.12242
1.39495	2.11839
1.39656	2.11436
1.39495	2.11275
1.39656	2.11033
1.39495	2.11033
1.39414	2.10872
1.39575	2.10711
1.39495	2.10469
1.39656	2.10147
1.39656	2.10227
1.39495	2.10308
1.39656	2.10227
1.39495	2.10630
1.39978	2.10872
1.39736	2.11114
1.39978	2.11275
1.39897	2.12242
1.40139	2.12322
1.40300	2.12645
1.39736	2.13612
1.39656	2.13692
1.39495	2.14418
1.39333	2.15223
1.39495	2.15949
1.39333	2.16271
1.39333	2.17077
1.39333	2.17883
1.39333	2.18447
1.39414	2.18850
1.39333	2.19172
1.39253	2.19495
1.39253	2.19656
1.39414	2.19978
1.39575	2.19897
1.39253	2.19978
1.39172	2.19897
1.39172	2.19817
1.39092	2.19656
1.38850	2.19172
1.38769	2.19172
1.38366	2.18930
1.38366	2.18769
1.38205	2.18205
1.38850	2.18366
1.38689	2.17883
1.38527	2.17883
1.38689	2.17641
1.38689	2.17560
1.38930	2.17077
1.38527	2.17077
1.38286	2.17319
1.38205	2.17883
1.38366	2.18044
1.38286	2.18366
1.38205	2.18769
1.38205	2.19253
1.38366	2.19656
1.38366	2.19978
1.38527	2.20623
1.38689	2.21348
1.38366	2.21832
1.38366	2.22557
1.38366	2.22960
1.38689	2.23766
1.38689	2.24007
1.38689	2.24813
1.38850	2.25216
1.38850	2.25780
1.39011	2.26183
1.38850	2.26505
1.38689	2.26505
1.38447	2.26747
1.38205	2.26747
1.38527	2.26667
1.38125	2.26747
1.38044	2.26586
1.37963	2.26505
1.37883	2.26264
1.37963	2.25619
1.37883	2.25458
1.37883	2.24894
1.37963	2.24491
1.38044	2.24007
1.38286	2.23846
1.38447	2.23443
1.38689	2.23040
1.38689	2.22718
1.38769	2.22396
1.38689	2.22396
1.38527	2.22234
1.38366	2.21751
1.38205	2.21832
1.37963	2.21509
1.38125	2.21751
1.37963	2.21832
1.37963	2.22154
1.37883	2.22315
1.37963	2.22637
1.38205	2.22799
1.38366	2.23363
1.38689	2.23685
1.39092	2.24088
1.39253	2.24652
1.39414	2.24974
1.39253	2.25297
1.39253	2.25619
1.39253	2.25941
1.39253	2.26103
1.39253	2.26505
1.39092	2.26505
1.39092	2.26425
1.39172	2.26505
1.39172	2.26264
1.39253	2.26022
1.39011	2.25700
1.38930	2.25538
1.38850	2.24974
1.38850	2.24088
1.39011	2.23927
1.38769	2.23363
1.38930	2.22637
1.38527	2.21912
1.38608	2.21348
1.38527	2.20462
1.38366	2.19897
1.38125	2.19172
1.37963	2.18689
1.37963	2.17883
1.38366	2.16513
1.37963	2.16432
1.38044	2.15949
1.38125	2.15385
1.38447	2.15062
1.39011	2.14498
1.39011	2.14176
1.39172	2.13773
1.39253	2.13612
1.39253	2.13370
1.39575	2.13370
1.39253	2.13370
1.39414	2.13128
1.39495	2.13128
1.39414	2.13128
1.39333	2.13048
1.39253	2.12484
1.39253	2.12564
1.39172	2.12403
1.39253	2.12322
1.39495	2.11758
1.39253	2.11436
1.39172	2.11114
1.38930	2.10549
1.39092	2.09905
1.39172	2.09179
1.38930	2.08454
1.38850	2.07568
1.38930	2.06842
1.39011	2.05956
1.39253	2.04828
1.38850	2.03780
1.38930	2.02894
1.38527	2.01766
1.38689	2.00718
1.39092	1.99509
1.39011	1.98300
1.39253	1.97656
1.39414	1.96527
1.39495	1.95560
1.39736	1.94755
1.39736	1.93707
1.39817	1.92982
1.39575	1.92579
1.39736	1.91773
1.39736	1.90967
1.39656	1.90806
1.39736	1.90403
1.39817	1.90000
1.39978	1.89839
1.40462	1.89516
1.40139	1.89275
1.40139	1.89194
1.40300	1.89033
1.40381	1.89033
1.40300	1.88872
1.40139	1.88872
1.39978	1.88711
1.40300	1.88630
1.40139	1.88469
1.40300	1.87985
1.39817	1.87905
1.39736	1.87824
1.39656	1.87582
1.39414	1.86777
1.39495	1.86615
1.39253	1.86454
1.39253	1.85810
1.39253	1.85326
1.39253	1.84681
1.39253	1.84117
1.39092	1.83634
1.38850	1.83070
1.38447	1.82425
1.38527	1.81861
1.38608	1.81216
1.38044	1.81055
1.38286	1.80330
1.38286	1.80088
1.38366	1.79846
1.38689	1.79201
1.38366	1.78960
1.38608	1.78557
1.38447	1.78557
1.38769	1.78476
1.38850	1.78234
1.38527	1.78315
1.38527	1.78396
1.38527	1.78315
1.38366	1.78637
1.38769	1.78718
1.38205	1.79201
1.38366	1.79604
1.38447	1.79846
1.38527	1.80088
1.38769	1.80088
1.38527	1.80491
1.38689	1.80813
1.38527	1.81055
1.38366	1.81297
1.38689	1.80974
1.38366	1.81216
1.38527	1.81216
1.38447	1.81055
1.38527	1.80813
1.38769	1.80330
1.38769	1.80410
1.38527	1.80007
1.38527	1.79201
1.38527	1.78879
1.38689	1.78718
1.38527	1.78073
1.38769	1.77509
1.38850	1.77026
1.38689	1.76623
1.39172	1.75656
1.39172	1.75172
1.39253	1.74930
1.39253	1.74689
1.39414	1.74125
1.40139	1.73802
1.40300	1.73722
1.40542	1.73560
1.40703	1.73238
1.40784	1.73480
1.41670	1.73319
1.41993	1.73399
1.42315	1.73480
1.42960	1.73722
1.43604	1.73722
1.44330	1.73883
1.45297	1.74527
1.46183	1.74930
1.47070	1.74930
1.47553	1.75253
1.48117	1.75495
1.47875	1.76300
1.48278	1.76462
1.48278	1.77106
1.48440	1.77026
1.49004	1.77267
1.48762	1.77429
1.47795	1.77509
1.45458	1.77509
1.41429	1.77509
1.36835	1.77509
1.31839	1.77509
1.26842	1.77267
1.22249	1.77026
1.18703	1.76623
1.17092	1.76300
1.16044	1.75736
1.16850	1.75414
1.18462	1.75011
1.20718	1.74930
1.24505	1.74366
1.27648	1.73963
1.31114	1.73722
1.34418	1.73238
1.37158	1.73077
1.39414	1.72755
1.41026	1.72835
1.42396	1.72513
1.43282	1.72513
1.44249	1.72432
1.44974	1.72513
1.45538	1.72593
1.45700	1.73077
1.45700	1.73319
1.45297	1.73560
1.44894	1.73883
1.44330	1.74608
1.43604	1.74850
1.43121	1.75333
1.42315	1.75736
1.41993	1.76703
1.41590	1.77267
1.40945	1.77509
1.40542	1.77993
1.40059	1.78315
1.39333	1.78637
1.38769	1.78799
1.37963	1.79040
1.37802	1.78960
1.37641	1.78960
1.37883	1.78637
1.37963	1.78718
1.38044	1.78154
1.38447	1.77670
1.38930	1.77026
1.39253	1.76784
1.39253	1.76300
1.39333	1.75172
1.39333	1.74689
1.39414	1.74125
1.39414	1.73158
1.39495	1.72755
1.39575	1.72352
1.39495	1.71788
1.40059	1.71223
1.40381	1.70901
1.40462	1.70579
1.40542	1.70337
1.40703	1.70015
1.40784	1.69853
1.40945	1.69692
1.40784	1.69853
1.40784	1.69773
1.40784	1.69853
1.40623	1.70095
1.40945	1.70176
1.40784	1.70901
1.40784	1.70901
1.40864	1.71062
1.40945	1.71385
1.41348	1.71868
1.41106	1.72110
1.41429	1.72352
1.41590	1.72432
1.41832	1.72755
1.41670	1.72674
1.41348	1.73158
1.41106	1.73399
1.40703	1.73319
1.40542	1.73399
1.40542	1.73077
1.40139	1.73158
1.40462	1.73238
1.40300	1.72916
1.40542	1.72755
1.40703	1.72352
1.40703	1.72029
1.41106	1.71868
1.40945	1.71788
1.40542	1.71062
1.39978	1.70901
1.40059	1.70901
1.39656	1.70256
1.39092	1.70337
1.38447	1.69853
1.38286	1.69773
1.37560	1.69773
1.36835	1.69773
1.36271	1.69692
1.35465	1.69773
1.35385	1.69773
1.35223	1.69853
1.34901	1.70256
1.34982	1.70256
1.35223	1.70821
1.35385	1.70982
1.35385	1.71304
1.35465	1.71465
1.35465	1.72110
1.35385	1.72352
1.35465	1.72352
1.35465	1.72835
1.35385	1.73480
1.35385	1.73560
1.35626	1.73722
1.35788	1.74044
1.35788	1.74205
1.35707	1.74125
1.35626	1.74205
1.35707	1.74125
1.35949	1.73963
1.35949	1.74044
1.36110	1.73641
1.36352	1.73480
1.36432	1.72835
1.36593	1.72674
1.36674	1.72352
1.36835	1.72352
1.36755	1.71949
1.37077	1.71546
1.37883	1.71143
1.37883	1.71062
1.38044	1.70982
1.38286	1.70659
1.38527	1.70498
1.39092	1.70176
1.39172	1.70015
1.39253	1.70095
1.39253	1.70176
1.39172	1.69773
1.39495	1.70256
1.39414	1.70256
1.39656	1.70659
1.39414	1.70901
1.39575	1.71062
1.39736	1.71143
1.39817	1.71465
1.39817	1.71546
1.39736	1.72190
1.39736	1.72352
1.40220	1.72513
1.39736	1.72835
1.40139	1.73319
1.39817	1.73560
1.39736	1.74044
1.40139	1.73963
1.40139	1.74205
1.39978	1.74366
1.39817	1.74205
1.39736	1.74527
1.39817	1.74366
1.39575	1.74366
1.39333	1.74125
1.39333	1.73883
1.39253	1.73802
1.39414	1.73399
1.39172	1.73158
1.39253	1.72916
1.39253	1.72513
1.39333	1.72432
1.39575	1.72352
1.39414	1.72029
1.39414	1.71949
1.39414	1.71868
1.39495	1.71626
1.39736	1.71385
1.39817	1.71304
1.40139	1.71304
1.40300	1.71385
1.40139	1.71546
1.40300	1.71385
1.40139	1.71788
1.40139	1.72029
1.40139	1.72271
1.40300	1.72352
1.40300	1.72432
1.40300	1.72916
1.40381	1.73158
1.40462	1.73722
1.39978	1.73883
1.40300	1.74044
1.40139	1.74447
1.40139	1.74608
1.40220	1.74930
1.40139	1.75011
1.40139	1.75011
1.39978	1.75333
1.39978	1.75253
1.39817	1.75172
1.39817	1.75172
1.39736	1.74930
1.39656	1.75011
1.39817	1.75011
1.39495	1.74930
1.39253	1.74527
1.39656	1.74125
1.39495	1.73963
1.39333	1.73722
1.39495	1.73399
1.39495	1.73158
1.39656	1.72593
1.39495	1.72513
1.39333	1.72352
1.39253	1.72190
1.39333	1.71949
1.39495	1.71788
1.39253	1.71788
1.39333	1.71788
1.39495	1.71868
1.39333	1.71788
1.39656	1.71788
1.39333	1.71626
1.39253	1.72271
1.39172	1.72352
1.39011	1.72352
1.39092	1.72352
1.38850	1.72755
1.38850	1.72755
1.38850	1.73641
1.38527	1.73641
1.38689	1.73883
1.38366	1.74125
1.38286	1.74689
1.38286	1.74930
1.38205	1.75092
1.38527	1.75092
1.38447	1.75414
1.38527	1.75656
1.38366	1.76703
1.38125	1.75253
1.38527	1.75414
1.38205	1.75656
1.38125	1.75333
1.38366	1.75172
1.38366	1.74930
1.38447	1.74930
1.38447	1.74689
1.38850	1.74366
1.39011	1.74125
1.39011	1.73802
1.39253	1.73560
1.39253	1.73238
1.39253	1.73158
1.39253	1.72755
1.39253	1.72916
1.39333	1.72352
1.39092	1.72674
1.39253	1.72513
1.39092	1.72593
1.39253	1.72513
1.39253	1.72513
1.39092	1.72593
1.39092	1.72916
1.39172	1.73399
1.39172	1.73399
1.39253	1.73399
1.39172	1.73883
1.39172	1.74366
1.39253	1.74205
1.39011	1.74930
1.39253	1.75011
1.39011	1.75333
1.39092	1.75656
1.39011	1.76300
1.38930	1.76300
1.39092	1.76381
1.39011	1.76784
1.38930	1.76945
1.39172	1.76945
1.39172	1.76784
1.38850	1.76381
1.38850	1.76462
1.38608	1.76300
1.38689	1.76300
1.38769	1.75656
1.39092	1.75253
1.38850	1.74930
1.38850	1.74769
1.38850	1.74527
1.38689	1.73883
1.39011	1.74205
1.38930	1.73641
1.38769	1.73641
1.38689	1.73802
1.38527	1.73480
1.39172	1.73158
1.38930	1.72835
1.38850	1.72835
1.38850	1.73077
1.38769	1.73238
1.38850	1.73077
1.38769	1.73399
1.38527	1.73480
1.38689	1.73560
1.38447	1.73883
1.38527	1.74205
1.38527	1.74447
1.38527	1.74689
1.38527	1.74850
1.38689	1.74930
1.39011	1.75011
1.38689	1.75333
1.38527	1.75736
1.38608	1.75575
1.38447	1.76300
1.38769	1.75817
1.38366	1.76300
1.38125	1.76300
1.38125	1.75656
1.37963	1.75495
1.38044	1.75333
1.37963	1.75092
1.37963	1.74930
1.38125	1.74930
1.38205	1.74527
1.38689	1.73883
1.38689	1.73883
1.38850	1.73480
1.39011	1.72835
1.39253	1.72593
1.39253	1.72432
1.39253	1.72271
1.39333	1.72190
1.39172	1.71868
1.39253	1.71788
1.39414	1.71304
1.39414	1.71465
1.39495	1.71546
1.39495	1.71546
1.39817	1.71465
1.40139	1.71465
1.39656	1.71949
1.40059	1.72110
1.39817	1.72190
1.39817	1.72352
1.40139	1.72432
1.40059	1.72916
1.39978	1.73158
1.40300	1.73641
1.40139	1.74044
1.40381	1.74205
1.40139	1.74769
1.40059	1.74930
1.39978	1.74930
1.39817	1.75414
1.40059	1.75414
1.39817	1.75736
1.39978	1.75817
1.39978	1.75736
1.39817	1.75736
1.39978	1.75656
1.39575	1.75333
1.39495	1.75414
1.39656	1.75414
1.39495	1.75011
1.39817	1.74689
1.39656	1.74527
1.39736	1.74125
1.39575	1.73641
1.39817	1.73399
1.39817	1.72916
1.39575	1.72755
1.39495	1.72593
1.39414	1.72352
1.39495	1.72271
1.39817	1.71868
1.39495	1.71949
1.39495	1.72190
1.39575	1.71788
1.39414	1.71949
1.39656	1.71949
1.39333	1.71868
1.39253	1.72352
1.39333	1.72352
1.39253	1.72513
1.39333	1.72513
1.39253	1.72996
1.39414	1.73319
1.39414	1.73641
1.39253	1.73802
1.39414	1.74366
1.39253	1.74527
1.39253	1.74850
1.39253	1.74930
1.39253	1.75011
1.39253	1.75172
1.39092	1.75333
1.39092	1.75333
1.39011	1.75333
1.39092	1.75414
1.39172	1.75092
1.38850	1.75333
1.38850	1.75253
1.39011	1.74930
1.39011	1.74930
1.39333	1.74366
1.39172	1.74366
1.39253	1.73802
1.39253	1.73722
1.39172	1.73158
1.39495	1.72835
1.39333	1.72674
1.39253	1.72432
1.39253	1.72352
1.39253	1.72352
1.39333	1.72110
1.39253	1.72271
1.39333	1.71949
1.39253	1.71788
1.39172	1.71868
1.39253	1.71626
1.39092	1.72190
1.39011	1.72352
1.38930	1.72352
1.39172	1.72513
1.39253	1.72916
1.39172	1.73158
1.39253	1.73238
1.39333	1.73722
1.39253	1.73883
1.39495	1.74205
1.39253	1.74769
1.39253	1.74930
1.39253	1.75253
1.39253	1.75172
1.39253	1.75495
1.39333	1.75817
1.39092	1.75656
1.39172	1.76300
1.39172	1.75656
1.39172	1.75495
1.38769	1.75656
1.38527	1.75495
1.38769	1.75172
1.38527	1.75011
1.39011	1.74850
1.39092	1.74608
1.38769	1.74125
1.38689	1.73963
1.38769	1.73641
1.38850	1.73319
1.38769	1.73641
1.38447	1.73077
1.38850	1.72755
1.38769	1.72835
1.38850	1.72352
1.38689	1.72352
1.38205	1.72352
1.38366	1.72352
1.38447	1.72271
1.38689	1.72352
1.38447	1.72352
1.38366	1.72352
1.38689	1.72513
1.38366	1.72432
1.38930	1.72593
1.38769	1.72996
1.38527	1.73319
1.38527	1.73480
1.38527	1.73722
1.38527	1.73883
1.38205	1.74044
1.38366	1.74447
1.38447	1.74769
1.38447	1.74608
1.38769	1.74850
1.38527	1.74930
1.38527	1.74930
1.38769	1.75011
1.38689	1.74930
1.38850	1.74930
1.38527	1.74930
1.38608	1.74930
1.38769	1.74930
1.39011	1.74689
1.39092	1.74366
1.39092	1.74447
1.39253	1.74366
1.39253	1.74205
1.39333	1.74044
1.39656	1.73802
1.39656	1.73641
1.39656	1.73560
1.39817	1.73399
1.39736	1.73560
1.40220	1.73399
1.39817	1.73238
1.39817	1.73560
1.40139	1.73560
1.39978	1.73480
1.40220	1.73641
1.39817	1.74044
1.39575	1.73883
1.39736	1.74447
1.39575	1.74850
1.39817	1.74769
1.39333	1.74930
1.39414	1.75172
1.39575	1.75172
1.39575	1.76300
1.39817	1.76300
1.39575	1.76462
1.39495	1.76623
1.39495	1.76784
1.39495	1.77267
1.39414	1.77267
1.39253	1.77429
1.39172	1.77429
1.39172	1.77509
1.39253	1.77429
1.39333	1.77267
1.39172	1.77106
1.39253	1.77267
1.39414	1.77026
1.39253	1.76703
1.39575	1.76542
1.39495	1.76462
1.39414	1.76381
1.39495	1.76300
1.39495	1.75736
1.39817	1.75333
1.39656	1.75333
1.39414	1.75495
1.39495	1.75414
1.39333	1.75495
1.39656	1.75172
1.39253	1.75253
1.39253	1.75414
1.39253	1.75414
1.39253	1.76300
1.39333	1.76300
1.39172	1.76300
1.39172	1.76784
1.39011	1.77106
1.39092	1.77267
1.39092	1.77509
1.39092	1.77751
1.39092	1.78234
1.39011	1.78557
1.38769	1.78718
1.38850	1.79040
1.38527	1.79604
1.38447	1.79846
1.38366	1.80088
1.38366	1.80168
1.38769	1.80088
1.38527	1.80330
1.38527	1.80249
1.38689	1.80491
1.38527	1.80168
1.38689	1.80168
1.38125	1.80088
1.38205	1.80088
1.38044	1.79685
1.38044	1.79604
1.38447	1.79121
1.38447	1.78879
1.38366	1.78637
1.38366	1.78396
1.38527	1.77912
1.39011	1.77509
1.38850	1.77429
1.38930	1.77026
1.39011	1.76945
1.39172	1.76542
1.39172	1.76381
1.39092	1.75656
1.39253	1.75495
1.39253	1.75656
1.39253	1.75656
1.39172	1.75172
1.39172	1.75333
1.38930	1.75333
1.39011	1.75414
1.39011	1.75656
1.39172	1.75656
1.39011	1.76381
1.38850	1.76623
1.39253	1.76945
1.39011	1.77026
1.39253	1.77026
1.39011	1.77509
1.39011	1.77509
1.39011	1.77590
1.39092	1.77670
1.39253	1.77670
1.39172	1.77912
1.39172	1.78073
1.39253	1.77912
1.39172	1.77832
1.39253	1.77590
1.39092	1.77751
1.39092	1.77509
1.39172	1.77348
1.38850	1.76945
1.39333	1.76784
1.39333	1.76381
1.39253	1.76300
1.39253	1.75575
1.39092	1.75172
1.39333	1.74930
1.39172	1.74689
1.39011	1.74366
1.39011	1.74125
1.39092	1.73641
1.39253	1.73560
1.38850	1.73399
1.38850	1.73238
1.38850	1.73077
1.38527	1.73077
1.38769	1.72916
1.38689	1.72835
1.38447	1.72835
1.38447	1.73158
1.38850	1.73158
1.39092	1.73158
1.38769	1.73480
1.38689	1.73802
1.38689	1.73963
1.38769	1.74205
1.38769	1.74286
1.38366	1.74608
1.38286	1.75333
1.38527	1.74930
1.38366	1.74930
1.38850	1.74930
1.38366	1.75172
1.38366	1.75172
1.38366	1.75172
1.38366	1.75172
1.38447	1.75011
1.38125	1.75011
1.38044	1.74930
1.38205	1.74930
1.38125	1.74930
1.38447	1.74527
1.38366	1.74527
1.38366	1.74044
1.38689	1.74044
1.38930	1.73560
1.39172	1.73319
1.39253	1.73158
1.39414	1.72916
1.39414	1.72674
1.39253	1.72593
1.39495	1.72755
1.39333	1.72352
1.38850	1.72432
1.38930	1.72593
1.38769	1.72432
1.38769	1.72352
1.38447	1.72513
1.38044	1.73641
1.38125	1.72835
1.38447	1.72835
1.38527	1.73238
1.39011	1.73480
1.39253	1.73641
1.39253	1.73963
1.39414	1.74044
1.39817	1.74527
1.39817	1.74447
1.40059	1.74930
1.40059	1.74930
1.40300	1.75092
1.40542	1.75011
1.40381	1.75495
1.40381	1.75656
1.40300	1.75656
1.40381	1.75817
1.40462	1.75656
1.40139	1.75817
1.40139	1.75736
1.39978	1.75656
1.40059	1.75333
1.40381	1.75253
1.40300	1.75011
1.40139	1.74930
1.40300	1.74930
1.40381	1.74930
1.40462	1.74850
1.40300	1.74850
1.39978	1.74769
1.39817	1.74769
1.39978	1.74527
1.39978	1.74608
1.39656	1.74689
1.39736	1.74850
1.39736	1.74447
1.39656	1.74850
1.39817	1.74850
1.39495	1.74930
1.39253	1.74930
1.39253	1.75172
1.39253	1.75333
1.39333	1.75736
1.39011	1.76300
1.39011	1.76381
1.38930	1.76945
1.38850	1.77267
1.38930	1.77509
1.38447	1.77751
1.38769	1.77912
1.38447	1.77832
1.38447	1.78396
1.38850	1.78234
1.38769	1.78557
1.38689	1.78557
1.38769	1.78557
1.38769	1.78396
1.38850	1.78234
1.38769	1.78315
1.38608	1.78073
1.38689	1.77751
1.38689	1.77509
1.38689	1.77509
1.38608	1.77187
1.38447	1.76945
1.38366	1.76623
1.38205	1.76300
1.38447	1.75172
1.38044	1.74930
1.38044	1.74930
1.38125	1.74286
1.38205	1.73883
1.38366	1.73560
1.38366	1.73238
1.38527	1.72996
1.38447	1.72593
1.38769	1.72352
1.38527	1.72352
1.38527	1.72352
1.38527	1.72352
1.38366	1.72593
1.38527	1.72513
1.38527	1.72835
1.38527	1.73319
1.38689	1.73883
1.38527	1.74850
1.38527	1.75092
1.38850	1.76300
1.38527	1.77590
1.38527	1.78557
1.38769	1.79927
1.38850	1.81297
1.39253	1.82505
1.39172	1.84117
1.39011	1.85648
1.39172	1.87421
1.39253	1.89275
1.39495	1.91289
1.39333	1.93626
1.39575	1.95722
1.39656	1.98381
1.39736	2.00718
1.40139	2.03538
1.40059	2.06681
1.39978	2.09744
1.40139	2.13048
1.39978	2.16190
1.40381	2.20220
1.39817	2.23927
1.39817	2.27956
1.39817	2.31824
1.39656	2.36176
1.39817	2.40286
1.39575	2.44557
1.39333	2.48828
1.39253	2.53582
1.39092	2.57612
1.39172	2.62608
1.39011	2.66960
1.38769	2.70747
1.38447	2.75260
1.38769	2.79370
1.38689	2.83238
1.38366	2.86945
1.38205	2.90491
1.38125	2.93714
1.38044	2.96615
1.38205	2.99516
1.37963	3.00000
1.37963	3.00000
1.37963	3.00000
1.37963	3.00000
1.37963	3.00000
1.37963	3.00000
1.37963	3.00000
1.37883	3.00000
1.37883	3.00000
1.37883	3.00000
1.37883	2.99114
1.37802	2.95890
1.37641	2.91458
1.37641	2.87026
1.37963	2.81707
1.37722	2.75744
1.37802	2.69861
1.37722	2.62769
1.37802	2.55194
1.37963	2.47941
1.37883	2.40286
1.37963	2.32147
1.37963	2.23927
1.37963	2.15385
1.38205	2.06923
1.38125	1.98864
1.38205	1.91048
1.38366	1.83150
1.38205	1.75414
1.38769	1.68484
1.38447	1.62117
1.38447	1.56154
1.38689	1.50916
1.38850	1.46564
1.39253	1.42454
1.39333	1.39634
1.39414	1.36974
1.39495	1.34557
1.39656	1.32864
1.40300	1.31897
1.40300	1.31172
1.40462	1.31011
1.40542	1.31092
1.40542	1.31333
1.40784	1.32059
1.40623	1.32864
1.40542	1.33670
1.40300	1.34557
1.40139	1.36168
1.40300	1.36813
1.40059	1.38103
1.39736	1.39311
1.39495	1.40117
1.39495	1.41165
1.40139	1.41648
1.40462	1.42938
1.41187	1.43744
1.42234	1.44147
1.43443	1.44872
1.44894	1.45275
1.45861	1.46000
1.46586	1.46564
1.47311	1.46725
1.47392	1.47451
1.47150	1.47773
1.46505	1.48740
1.45700	1.49062
1.44813	1.49385
1.43927	1.50110
1.43121	1.50432
1.42073	1.51238
1.41348	1.51802
1.40623	1.52689
1.40300	1.53333
1.39656	1.54220
1.39092	1.55106
1.37963	1.55751
1.37158	1.57040
1.36513	1.57927
1.35304	1.59136
1.34176	1.60183
1.33289	1.60747
1.32403	1.61875
1.31275	1.62117
1.30791	1.63407
1.30147	1.64615
1.29341	1.65502
1.28938	1.66308
1.28857	1.67033
1.28938	1.67194
1.28938	1.68403
1.28938	1.68886
1.29421	1.69370
1.30147	1.69773
1.30630	1.70015
1.31436	1.70579
1.32242	1.70740
1.32967	1.71062
1.34015	1.71223
1.35223	1.71304
1.35788	1.71626
1.36916	1.71949
1.37963	1.72190
1.39011	1.72271
1.39736	1.72352
1.40542	1.72513
1.41509	1.72674
1.42073	1.72835
1.42799	1.72835
1.43524	1.73158
1.43685	1.73722
1.44491	1.73883
1.45216	1.74447
1.45538	1.74447
1.46103	1.74769
1.46264	1.74930
1.46747	1.75333
1.47150	1.75495
1.47795	1.76462
1.48278	1.76623
1.48359	1.77026
1.48440	1.77429
1.48440	1.77670
1.48198	1.77912
1.47875	1.77751
1.46908	1.77912
1.46022	1.77993
1.45619	1.78234
1.44652	1.78234
1.44491	1.78234
1.43604	1.78396
1.42960	1.78234
1.42234	1.77912
1.41429	1.77509
1.40542	1.77509
1.39414	1.77509
1.38447	1.77106
1.37963	1.77106
1.37480	1.76542
1.37238	1.76300
1.36996	1.76300
1.37077	1.75495
1.37077	1.75495
1.37238	1.75495
1.37560	1.75333
1.37480	1.75333
1.37238	1.75333
1.37077	1.75333
1.36755	1.75333
1.36271	1.75333
1.35385	1.75817
1.34740	1.76300
1.34015	1.76462
1.33289	1.76945
1.32806	1.77026
1.32081	1.77509
1.32000	1.77509
1.31919	1.78154
1.32242	1.78557
1.32806	1.78799
1.32886	1.79282
1.33692	1.79846
1.34256	1.80007
1.35143	1.80088
1.35868	1.80088
1.36432	1.80410
1.37077	1.80652
1.37963	1.80733
1.38205	1.80491
1.38689	1.80652
1.39011	1.80652
1.39172	1.80330
1.39333	1.80168
1.39736	1.80168
1.40220	1.80088
1.39978	1.79846
1.40139	1.79685
1.40300	1.79282
1.40462	1.79201
1.40542	1.78718
1.40381	1.78557
1.40381	1.78234
1.40542	1.78234
1.40542	1.77509
1.40623	1.77832
1.40703	1.77751
1.40623	1.77912
1.40542	1.77912
1.40542	1.77832
1.40623	1.77993
1.40542	1.78234
1.40542	1.78637
1.40542	1.78799
1.40381	1.79201
1.40381	1.79604
1.40220	1.80088
1.39817	1.80088
1.39575	1.80894
1.39253	1.81136
1.39253	1.81458
1.38850	1.82103
1.38608	1.82425
1.38044	1.82667
1.37963	1.82908
1.37963	1.82908
1.38125	1.83553
1.37963	1.83634
1.37963	1.83875
1.38125	1.83714
1.38527	1.83714
1.38447	1.83795
1.38447	1.83553
1.38608	1.83231
1.38527	1.82989
1.39011	1.82667
1.38769	1.82667
1.39011	1.81941
1.39253	1.81619
1.39253	1.81458
1.39333	1.81055
1.39253	1.80894
1.39172	1.80571
1.39172	1.80088
1.39011	1.80088
1.39092	1.80007
1.38689	1.80007
1.38769	1.79846
1.38689	1.79766
1.38769	1.80088
1.38930	1.80088
1.38689	1.80007
1.38689	1.80088
1.38527	1.80491
1.38205	1.80974
1.38850	1.81136
1.38527	1.81377
1.38366	1.81377
1.38205	1.82425
1.38689	1.82667
1.38769	1.82667
1.38527	1.83473
1.38689	1.83714
1.38689	1.84440
1.38689	1.84520
1.38850	1.84762
1.38769	1.85084
1.38527	1.85245
1.39011	1.85245
1.38769	1.85326
1.39172	1.85245
1.39253	1.85245
1.39253	1.85245
1.39575	1.85165
1.39817	1.84681
1.40139	1.84359
1.40139	1.84440
1.40381	1.83875
1.40381	1.83392
1.40462	1.83231
1.40542	1.82667
1.40542	1.82667
1.40623	1.82586
1.40623	1.82505
1.40623	1.82183
1.40864	1.81700
1.40623	1.81780
1.40623	1.81861
1.40542	1.81861
1.40542	1.81458
1.40623	1.81941
1.40542	1.82103
1.40542	1.82425
1.40542	1.82586
1.40542	1.82667
1.40542	1.82747
1.40462	1.83714
1.40462	1.84037
1.40139	1.84359
1.40139	1.84923
1.40462	1.85084
1.40220	1.85648
1.40220	1.85810
1.40139	1.86293
1.39897	1.86696
1.39817	1.86696
1.39736	1.87341
1.40059	1.87099
1.40139	1.87341
1.40139	1.87663
1.40542	1.87582
1.40381	1.87582
1.40300	1.87341
1.40381	1.87341
1.40139	1.86938
1.40462	1.86615
1.40059	1.86535
1.39817	1.86374
1.39736	1.86374
1.39495	1.85971
1.39575	1.85326
1.39253	1.85407
1.39253	1.85245
1.39172	1.85084
1.39253	1.85165
1.39253	1.84923
1.39011	1.84762
1.39011	1.84762
1.39011	1.84842
1.39011	1.85004
1.39011	1.85084
1.39011	1.85004
1.39253	1.85245
1.39172	1.85407
1.39253	1.85487
1.39333	1.85729
1.39253	1.86535
1.39333	1.86615
1.39253	1.87260
1.39253	1.87421
1.39253	1.87744
1.39172	1.87905
1.39011	1.88308
1.38850	1.88872
1.39011	1.89033
1.39253	1.89355
1.39092	1.89919
1.39092	1.90000
1.39172	1.90161
1.39253	1.90322
1.39253	1.90242
1.38930	1.90403
1.38930	1.90242
1.38769	1.90403
1.38689	1.90403
1.38689	1.90161
1.38366	1.90161
1.38447	1.89919
1.38286	1.89839
1.38044	1.89678
1.38205	1.89355
1.37963	1.89355
1.37963	1.89355
1.37963	1.89436
1.37963	1.89194
1.37963	1.89033
1.37963	1.89114
1.37802	1.89275
1.37963	1.89194
1.37963	1.89436
1.38205	1.89597
1.38044	1.89919
1.38366	1.90081
1.38205	1.90403
1.38366	1.90403
1.38527	1.90806
1.38447	1.91612
1.38205	1.91692
1.38125	1.92176
1.38044	1.92982
1.38366	1.92982
1.38044	1.93546
1.38366	1.93868
1.38286	1.94352
1.38527	1.94755
1.39011	1.94916
1.38850	1.95399
1.38850	1.95480
1.39172	1.95641
1.39092	1.95722
1.39092	1.95883
1.39172	1.95963
1.39172	1.96044
1.39172	1.95963
1.39253	1.95963
1.39253	1.95802
1.39253	1.95802
1.39253	1.95641
1.39414	1.95641
1.39414	1.95560
1.39575	1.95560
1.39736	1.95560
1.40059	1.95560
1.39978	1.95560
1.39978	1.95399
1.39897	1.95560
1.39817	1.95560
1.39656	1.95722
1.39575	1.95802
1.39414	1.96447
1.39253	1.96769
1.39172	1.96850
1.39092	1.97333
1.39011	1.98059
1.38769	1.98300
1.38850	1.98623
1.38447	1.99348
1.38527	1.99912
1.38447	2.00637
1.38527	2.00799
1.38689	2.01604
1.38366	2.02088
1.38447	2.02813
1.38850	2.03297
1.38366	2.03458
1.38366	2.03861
1.38366	2.03941
1.38447	2.04586
1.38286	2.04828
1.38044	2.04989
1.38125	2.04989
1.37963	2.04908
1.38205	2.05070
1.38205	2.05311
1.38447	2.05070
1.38527	2.04989
1.38769	2.04586
1.38850	2.04505
1.39092	2.04344
1.39172	2.04103
1.39253	2.03700
1.39092	2.03700
1.39092	2.03458
1.38769	2.03458
1.38527	2.03297
1.39011	2.03297
1.38527	2.03377
1.38689	2.03458
1.38527	2.03538
1.38850	2.03619
1.39092	2.04022
1.38769	2.04586
1.39092	2.04747
1.39172	2.05473
1.39092	2.05875
1.39092	2.06117
1.39172	2.06762
1.38850	2.07165
1.39011	2.07890
1.39011	2.08454
1.38689	2.08938
1.38769	2.09502
1.38850	2.10066
1.39092	2.10388
1.38850	2.11033
1.38930	2.11436
1.39092	2.11758
1.39172	2.12161
1.39333	2.12081
1.39333	2.12242
1.39333	2.12322
1.39495	2.12322
1.39414	2.12242
1.39414	2.12081
1.39495	2.12000
1.39333	2.11919
1.39253	2.11436
1.39172	2.11194
1.38850	2.11033
1.38527	2.10227
1.38447	2.10066
1.38286	2.09824
1.38447	2.09502
1.38447	2.09341
1.38850	2.08374
1.39253	2.08454
1.39172	2.08454
1.39092	2.08454
1.39253	2.08454
1.39253	2.08212
1.39172	2.07971
1.39092	2.07971
1.39253	2.08293
1.39092	2.08454
1.39253	2.08454
1.39253	2.08696
1.39253	2.08938
1.39253	2.09099
1.39253	2.09582
1.39253	2.09824
1.39011	2.09905
1.39092	2.10549
1.38850	2.10630
1.39092	2.10791
1.39011	2.10952
1.38850	2.11033
1.38930	2.11033
1.38769	2.11114
1.38769	2.11033
1.38447	2.10872
1.38769	2.10630
1.38366	2.10388
1.38527	2.09985
1.38769	2.09502
1.38850	2.09018
1.39092	2.08454
1.39092	2.08051
1.39011	2.07407
1.39092	2.06601
1.38769	2.06037
1.38689	2.05392
1.38527	2.04828
1.38527	2.04103
1.38527	2.03297
1.38689	2.02813
1.39092	2.02007
1.38769	2.01604
1.38769	2.00718
1.38527	2.00637
1.38527	1.99993
1.38850	1.99509
1.38447	1.99026
1.38527	1.98623
1.38447	1.98300
1.38527	1.97978
1.38850	1.97817
1.38769	1.97656
1.38850	1.97253
1.38689	1.97011
1.38769	1.96769
1.39011	1.96447
1.38769	1.96608
1.39092	1.96286
1.38930	1.95802
1.39253	1.95560
1.39172	1.95319
1.39253	1.94835
1.39253	1.94271
1.39253	1.93788
1.39253	1.93062
1.39333	1.92418
1.39253	1.91773
1.39253	1.90967
1.39253	1.90322
1.39333	1.89678
1.39333	1.88549
1.39253	1.87824
1.39253	1.86777
1.39414	1.86051
1.39333	1.85245
1.39495	1.84037
1.39253	1.83714
1.39253	1.82667
1.39333	1.81941
1.39253	1.81297
1.39656	1.80249
1.39495	1.80088
1.39414	1.79363
1.39414	1.78879
1.39656	1.78234
1.39817	1.77590
1.40059	1.77509
1.39736	1.77267
1.39817	1.77267
1.39978	1.76945
1.40139	1.76703
1.39736	1.76784
1.39978	1.76381
1.39736	1.76300
1.39817	1.76381
1.39736	1.76381
1.39656	1.76300
1.39575	1.76300
1.39656	1.75817
1.39495	1.75656
1.39736	1.75333
1.39575	1.75333
1.39495	1.75011
1.39414	1.74769
1.39575	1.74527
1.39575	1.74125
1.39253	1.73560
1.39414	1.72916
1.39333	1.72432
1.39414	1.71949
1.39575	1.71223
1.39333	1.70901
1.39736	1.70176
1.39656	1.69773
1.39736	1.69048
1.39897	1.68242
1.39736	1.67919
1.39575	1.67194
1.39495	1.66872
1.39575	1.66308
1.39736	1.65824
1.39414	1.65663
1.39253	1.65502
1.39253	1.65099
1.39172	1.65099
1.39253	1.65018
1.39011	1.65099
1.39092	1.65260
1.39011	1.65179
1.39011	1.65421
1.39092	1.65582
1.38769	1.65905
1.38527	1.66147
1.38769	1.66388
1.38447	1.66630
1.38689	1.66630
1.38205	1.67114
1.38125	1.67194
1.38205	1.67275
1.38205	1.67355
1.38286	1.67597
1.37963	1.67597
1.38044	1.67678
1.38125	1.67516
1.37963	1.67436
1.38205	1.67436
1.38044	1.67194
1.38044	1.67194
1.38044	1.67033
1.37963	1.66711
1.38205	1.66147
1.38044	1.65905
1.38044	1.65744
1.37963	1.65260
1.38125	1.65018
1.38366	1.64535
1.38366	1.64293
1.38366	1.64051
1.38527	1.63487
1.38689	1.63487
1.38769	1.62842
1.38769	1.63084
1.38366	1.62923
1.38689	1.62923
1.38930	1.62842
1.38850	1.64696
1.39011	1.62923
1.39253	1.63084
1.39253	1.63165
1.39253	1.63407
1.39817	1.63487
1.39978	1.63729
1.40300	1.64051
1.40542	1.64374
1.40542	1.64615
1.40945	1.64615
1.40945	1.65018
1.41429	1.65099
1.41912	1.65663
1.42718	1.65663
1.43443	1.65663
1.44410	1.65905
1.45619	1.65824
1.46908	1.65905
1.48278	1.65905
1.49729	1.65824
1.50777	1.65824
1.51421	1.65502
1.52227	1.65421
1.52549	1.65018
1.52952	1.64615
1.51985	1.64615
1.50454	1.64535
1.47070	1.64293
1.42718	1.63810
1.37560	1.63487
1.31597	1.63326
1.26278	1.63165
1.20799	1.63165
1.17172	1.62762
1.14755	1.62520
1.13304	1.62117
1.13304	1.62359
1.14593	1.62198
1.17495	1.62117
1.20718	1.62601
1.25311	1.62117
1.30227	1.62762
1.34982	1.62762
1.38769	1.62440
1.42718	1.62842
1.44974	1.63165
1.46828	1.63487
1.48278	1.63729
1.48359	1.64132
1.48681	1.64454
1.48278	1.64454
1.47553	1.64615
1.46264	1.64777
1.44974	1.64857
1.43927	1.65018
1.42396	1.65179
1.41106	1.65179
1.40381	1.65341
1.40059	1.65341
1.40139	1.65099
1.40139	1.65341
1.40300	1.65099
1.40300	1.64777
1.40300	1.64696
1.40220	1.64535
1.39333	1.64212
1.38769	1.64212
1.38205	1.63890
1.38125	1.63568
1.38044	1.63407
1.38044	1.63165
1.38366	1.63084
1.38850	1.62681
1.39253	1.62762
1.39575	1.62520
1.39333	1.62440
1.39495	1.62762
1.39817	1.62440
1.40381	1.62440
1.40945	1.62520
1.41751	1.62842
1.42879	1.63004
1.43685	1.63245
1.44410	1.63407
1.45619	1.63407
1.45941	1.64051
1.46425	1.64212
1.46505	1.64535
1.46183	1.64615
1.45941	1.64615
1.45216	1.65179
1.44410	1.65421
1.43363	1.65582
1.42315	1.65905
1.41348	1.65905
1.39736	1.65985
1.38769	1.65985
1.37722	1.66066
1.36110	1.65905
1.35626	1.65905
1.34982	1.65905
1.34256	1.65663
1.33853	1.65421
1.33853	1.65099
1.33934	1.64615
1.33370	1.64615
1.33370	1.64535
1.33209	1.64132
1.33289	1.63890
1.33612	1.63568
1.33531	1.63326
1.33531	1.63165
1.33853	1.63084
1.34015	1.63084
1.34176	1.62923
1.34418	1.62842
1.34821	1.63004
1.35223	1.62923
1.35465	1.62923
1.36271	1.63084
1.36190	1.63326
1.36593	1.63407
1.36674	1.63648
1.37158	1.64132
1.37722	1.63890
1.37480	1.64535
1.37238	1.64615
1.37802	1.64615
1.37802	1.65018
1.38044	1.65179
1.37963	1.65744
1.38205	1.65905
1.38366	1.65905
1.38769	1.66147
1.38930	1.66066
1.39172	1.66308
1.39172	1.66388
1.39253	1.66066
1.39414	1.66147
1.39736	1.65985
1.39817	1.65905
1.39656	1.65905
1.39978	1.65744
1.39736	1.65502
1.39736	1.65018
1.39414	1.64938
1.39414	1.64696
1.39253	1.64615
1.39172	1.64212
1.39333	1.64051
1.39253	1.63729
1.39253	1.63487
1.39092	1.63165
1.39172	1.62842
1.39172	1.62762
1.39011	1.62842
1.38930	1.62762
1.38769	1.62842
1.38447	1.62923
1.38689	1.62842
1.38366	1.63084
1.38366	1.63245
1.38366	1.63487
1.38447	1.63729
1.38769	1.63810
1.38769	1.64212
1.38850	1.64615
1.39011	1.64696
1.39092	1.65099
1.39333	1.65663
1.39333	1.65905
1.39414	1.65985
1.39495	1.66227
1.39414	1.66388
1.39736	1.66791
1.39495	1.66952
1.39495	1.66952
1.39575	1.66872
1.39736	1.67114
1.39817	1.66711
1.39495	1.66952
1.39736	1.66630
1.39736	1.66388
1.39736	1.65985
1.39897	1.65502
1.39736	1.65502
1.39736	1.65341
1.40059	1.65018
1.39978	1.64615
1.40139	1.64535
1.39817	1.64212
1.39736	1.63810
1.39575	1.63729
1.39495	1.63487
1.39575	1.63326
1.39253	1.63084
1.39011	1.63326
1.39092	1.63165
1.39011	1.62762
1.39092	1.62923
1.38850	1.63245
1.38930	1.63407
1.39011	1.63648
1.38689	1.63568
1.38527	1.64535
1.38850	1.64615
1.38769	1.64615
1.39011	1.64777
1.38850	1.65018
1.38769	1.65502
1.38689	1.65905
1.38769	1.65905
1.38850	1.66227
1.38769	1.66227
1.38769	1.66469
1.38447	1.66630
1.38769	1.66711
1.38850	1.66791
1.38769	1.66630
1.39011	1.66711
1.39092	1.66147
1.39253	1.66308
1.39333	1.65905
1.39575	1.65905
1.39414	1.65824
1.39978	1.65260
1.39978	1.65018
1.39817	1.64696
1.39978	1.64535
1.39978	1.64293
1.39978	1.64132
1.40059	1.63729
1.40139	1.63487
1.40300	1.63407
1.40300	1.63245
1.40139	1.63084
1.40300	1.63165
1.40220	1.63165
1.40300	1.63165
1.40381	1.63165
1.40381	1.63326
1.39978	1.63568
1.40381	1.63648
1.40139	1.64051
1.40139	1.64132
1.40220	1.64615
1.40059	1.64615
1.40059	1.64857
1.40059	1.65179
1.39978	1.65341
1.39978	1.65582
1.39817	1.65905
1.39656	1.65905
1.39414	1.66308
1.39333	1.66388
1.39253	1.66630
1.39253	1.66711
1.39333	1.66711
1.39414	1.66388
1.39414	1.66630
1.39333	1.66308
1.39333	1.65985
1.39253	1.65905
1.39253	1.65744
1.39333	1.65582
1.39253	1.65099
1.39253	1.64696
1.39172	1.64535
1.39092	1.64212
1.39253	1.63890
1.39253	1.63729
1.39253	1.63326
1.39092	1.63245
1.39253	1.63084
1.39172	1.62842
1.38850	1.62681
1.38850	1.62520
1.38769	1.62923
1.38769	1.62520
1.38447	1.62762
1.38447	1.62762
1.38366	1.63084
1.38205	1.63165
1.38286	1.63407
1.38205	1.63326
1.38125	1.64051
1.38044	1.64212
1.37963	1.64535
1.38044	1.64615
1.37963	1.64696
1.37963	1.65179
1.37963	1.65502
1.37963	1.65663
1.37963	1.65905
1.37963	1.66066
1.38044	1.66147
1.38044	1.66066
1.38044	1.66147
1.38125	1.65905
1.38527	1.65905
1.38769	1.65824
1.38850	1.65824
1.38850	1.65582
1.39011	1.65341
1.39092	1.64777
1.38850	1.65018
1.38527	1.64615
1.38527	1.64454
1.38205	1.64132
1.38447	1.63810
1.38205	1.63729
1.38205	1.63407
1.38205	1.63407
1.38125	1.63245
1.38608	1.63084
1.38366	1.63165
1.38769	1.62923
1.38769	1.63165
1.39011	1.63165
1.39253	1.63165
1.39092	1.63326
1.39172	1.63487
1.39172	1.63729
1.39333	1.63890
1.39253	1.64051
1.39253	1.64535
1.38930	1.64535
1.38769	1.64615
1.38689	1.65018
1.39253	1.65099
1.38850	1.65341
1.39092	1.65824
1.39011	1.65985
1.39092	1.66066
1.39092	1.66147
1.38769	1.66308
1.38850	1.66469
1.38769	1.66308
1.38447	1.66388
1.38850	1.66066
1.38527	1.66066
1.38527	1.65905
1.38366	1.65824
1.38447	1.65744
1.38850	1.65341
1.38689	1.64857
1.38366	1.64696
1.38366	1.64615
1.38527	1.64374
1.38769	1.63890
1.38689	1.63568
1.38769	1.63487
1.38850	1.63326
1.38850	1.63004
1.39172	1.63084
1.38850	1.62923
1.38769	1.62842
1.38769	1.62842
1.38769	1.62762
1.38930	1.62842
1.38769	1.63165
1.38366	1.63407
1.38527	1.63407
1.38366	1.63810
1.39011	1.63729
1.38527	1.64374
1.38447	1.64454
1.38769	1.64615
1.38689	1.64777
1.38850	1.65099
1.38689	1.65663
1.38689	1.65905
1.38527	1.65985
1.38527	1.66066
1.39011	1.66388
1.38769	1.66791
1.38850	1.66791
1.39011	1.67033
1.39092	1.66952
1.39333	1.66469
1.39172	1.66952
1.39253	1.66308
1.39253	1.66308
1.39253	1.66308
1.39656	1.65824
1.39495	1.65905
1.39495	1.65582
1.39495	1.65099
1.39656	1.65018
1.39817	1.64696
1.39656	1.64615
1.39736	1.64454
1.39817	1.64374
1.39736	1.63890
1.39817	1.63729
1.39656	1.64132
1.39736	1.63729
1.39575	1.63648
1.39575	1.64051
1.39656	1.63890
1.39414	1.64212
1.39414	1.64374
1.39495	1.64535
1.39495	1.64615
1.39736	1.64696
1.39333	1.65341
1.39333	1.65421
1.39414	1.65824
1.39253	1.65905
1.39253	1.66147
1.39092	1.66791
1.39092	1.67114
1.39011	1.67114
1.38769	1.67194
1.38527	1.67436
1.38447	1.67758
1.38850	1.67678
1.38608	1.67597
1.39011	1.67194
1.39172	1.67516
1.39172	1.67275
1.39253	1.67194
1.39253	1.67194
1.39253	1.66711
1.39414	1.66711
1.39172	1.66308
1.39253	1.66066
1.39253	1.65905
1.39253	1.65502
1.39495	1.64777
1.39253	1.64696
1.39333	1.64777
1.39253	1.64535
1.39495	1.64374
1.39656	1.64132
1.39495	1.64132
1.39414	1.64212
1.39333	1.64051
1.39656	1.64293
1.39656	1.64132
1.39495	1.64374
1.39333	1.64374
1.39495	1.64615
1.39575	1.64857
1.39495	1.64938
1.39575	1.65502
1.39333	1.65663
1.39414	1.65985
1.39333	1.66388
1.39656	1.66388
1.39414	1.66952
1.39333	1.67194
1.39333	1.67194
1.39333	1.67678
1.39495	1.67678
1.39253	1.68081
1.39092	1.68081
1.39253	1.68161
1.39172	1.68242
1.39414	1.68161
1.39333	1.68000
1.39253	1.67597
1.39414	1.67597
1.39495	1.67275
1.39495	1.67194
1.39253	1.67033
1.39253	1.66630
1.39253	1.66308
1.39333	1.65985
1.39414	1.65824
1.39333	1.65582
1.39253	1.65502
1.39414	1.65018
1.39414	1.64938
1.39656	1.64615
1.39333	1.64696
1.39414	1.64615
1.39333	1.64454
1.39333	1.64615
1.39414	1.64454
1.39333	1.64615
1.39253	1.64615
1.39253	1.64696
1.39172	1.65179
1.39253	1.64938
1.38930	1.65502
1.38850	1.65421
1.39011	1.65985
1.39011	1.66066
1.39172	1.66308
1.39092	1.66791
1.39092	1.66791
1.38930	1.67033
1.38850	1.67194
1.38930	1.67194
1.38769	1.67275
1.38769	1.67275
1.38689	1.67275
1.38769	1.67194
1.39011	1.67194
1.38850	1.67033
1.39172	1.67033
1.39092	1.66469
1.39092	1.66147
1.39253	1.65824
1.39172	1.65663
1.39253	1.65502
1.39092	1.65018
1.39253	1.64615
1.39333	1.64374
1.39172	1.64132
1.39253	1.64132
1.39172	1.63487
1.39172	1.63568
1.39253	1.63245
1.39172	1.63165
1.39172	1.63245
1.39253	1.63245
1.39253	1.63245
1.39414	1.63245
1.39333	1.63810
1.39253	1.63568
1.39253	1.63890
1.39414	1.64212
1.39333	1.64454
1.39172	1.64696
1.39253	1.64857
1.39092	1.65421
1.39092	1.65905
1.39253	1.65905
1.39092	1.66469
1.39011	1.67114
1.39011	1.67114
1.39011	1.67355
1.39092	1.67516
1.38930	1.67678
1.38769	1.68081
1.38689	1.68081
1.39011	1.68242
1.39011	1.68081
1.39092	1.68242
1.39011	1.68242
1.39011	1.68081
1.38930	1.67678
1.39253	1.67355
1.39172	1.67194
1.39172	1.67033
1.39092	1.67033
1.39253	1.66630
1.39253	1.66227
1.39172	1.66066
1.39253	1.65744
1.39172	1.65824
1.39253	1.65663
1.39253	1.65663
1.39253	1.65663
1.38850	1.65582
1.38930	1.65341
1.38930	1.65744
1.39011	1.65663
1.39092	1.65824
1.38930	1.65985
1.39092	1.66308
1.38769	1.66791
1.39092	1.66952
1.38769	1.67194
1.38689	1.67597
1.38447	1.68322
1.38447	1.68564
1.38527	1.68967
1.38447	1.69612
1.38125	1.69853
1.38205	1.70176
1.38205	1.70579
1.38205	1.70821
1.38044	1.71062
1.38044	1.71304
1.38125	1.71304
1.38044	1.71546
1.38205	1.71546
1.38044	1.71626
1.38044	1.71626
1.38044	1.71626
1.38286	1.71304
1.38205	1.71223
1.37883	1.71062
1.37802	1.71062
1.37883	1.70659
1.37963	1.70659
1.38044	1.70176
1.38044	1.71788
1.38366	1.70015
1.38286	1.69853
1.38689	1.69692
1.38689	1.69773
1.38205	1.69773
1.38205	1.69773
1.38125	1.69773
1.38205	1.69773
1.38366	1.70015
1.38366	1.70015
1.38205	1.70176
1.38447	1.70659
1.38366	1.70901
1.38527	1.71062
1.38205	1.71546
1.38447	1.71949
1.38366	1.72352
1.38769	1.72352
1.38930	1.72835
1.39011	1.73158
1.39011	1.73560
1.39253	1.73883
1.39253	1.74044
1.39414	1.74366
1.39333	1.74366
1.39333	1.74689
1.39495	1.74527
1.39495	1.74366
1.39656	1.74044
1.39656	1.73883
1.39333	1.73399
1.39495	1.73641
1.39736	1.72755
1.39656	1.72432
1.39414	1.72271
1.39414	1.71546
1.39414	1.71223
1.39414	1.71062
1.39414	1.70256
1.39253	1.69853
1.39253	1.69612
1.39011	1.69289
1.39172	1.68886
1.39253	1.68242
1.38930	1.68403
1.39092	1.68081
1.38930	1.68081
1.38930	1.68161
1.39172	1.68161
1.39092	1.68081
1.39253	1.68322
1.39253	1.68403
1.39253	1.68806
1.39978	1.68886
1.39495	1.69289
1.39736	1.69773
1.39656	1.69934
1.39656	1.69934
1.39978	1.70579
1.39656	1.70659
1.39656	1.71143
1.39656	1.71304
1.39495	1.71465
1.39817	1.71626
1.39656	1.72029
1.39736	1.72029
1.39656	1.72029
1.39656	1.72029
1.39736	1.71868
1.39495	1.71546
1.39495	1.71626
1.39414	1.71143
1.39414	1.71062
1.39253	1.70659
1.39333	1.70176
1.39253	1.69853
1.39253	1.69692
1.39172	1.69289
1.39253	1.68725
1.39172	1.68564
1.39172	1.68242
1.38850	1.67919
1.39172	1.67436
1.39172	1.67194
1.38850	1.67114
1.39092	1.67114
1.39172	1.66952
1.39011	1.66952
1.39253	1.66630
1.39092	1.66711
1.39253	1.66872
1.39253	1.67194
1.39253	1.67194
1.39495	1.67114
1.39253	1.67275
1.39253	1.67516
1.39092	1.68000
1.39172	1.68322
1.39333	1.68403
1.39253	1.68725
1.39253	1.68967
1.39253	1.69209
1.39253	1.69531
1.39253	1.69289
1.39172	1.69692
1.38850	1.69773
1.39172	1.69692
1.39011	1.69531
1.39253	1.69370
1.39253	1.69209
1.39011	1.69048
1.39253	1.68725
1.39333	1.68484
1.39495	1.68000
1.39253	1.67919
1.39253	1.67355
1.39333	1.67033
1.39253	1.66952
1.39333	1.66630
1.39253	1.66469
1.39172	1.66147
1.39333	1.66147
1.39333	1.65905
1.39656	1.65905
1.39414	1.65905
1.39575	1.65663
1.39414	1.65663
1.39333	1.65905
1.39656	1.65905
1.39414	1.65985
1.39333	1.66308
1.39495	1.66630
1.39575	1.66791
1.39656	1.67194
1.39414	1.67194
1.39656	1.67678
1.39575	1.68322
1.39495	1.68725
1.39897	1.68725
1.39736	1.69209
1.39978	1.69612
1.39736	1.69853
1.39817	1.69853
1.39817	1.70015
1.39495	1.70337
1.39656	1.70579
1.39414	1.70337
1.39253	1.70659
1.39253	1.70256
1.39172	1.70418
1.39253	1.70256
1.38850	1.70015
1.38930	1.69773
1.39172	1.69692
1.39092	1.69289
1.39011	1.69048
1.39172	1.68564
1.39172	1.68081
1.39333	1.67919
1.39172	1.67597
1.39092	1.67275
1.39172	1.67194
1.39011	1.67114
1.39092	1.66630
1.38769	1.66952
1.39011	1.66469
1.38850	1.66388
1.38769	1.66388
1.38850	1.66630
1.38689	1.66952
1.38447	1.66791
1.38447	1.67194
1.38447	1.67194
1.38527	1.67194
1.38527	1.67597
1.38366	1.68000
1.38366	1.68564
1.38366	1.68645
1.38527	1.69048
1.38447	1.69370
1.38447	1.69531
1.38447	1.69773
1.38850	1.70015
1.38769	1.70015
1.38769	1.70176
1.38527	1.70337
1.38447	1.70256
1.38447	1.70659
1.38769	1.70015
1.38447	1.70015
1.38527	1.69773
1.38527	1.69370
1.38527	1.68806
1.38769	1.68403
1.38769	1.67919
1.38527	1.67275
1.38850	1.67114
1.38366	1.66630
1.38850	1.65905
1.38527	1.65744
1.38769	1.65099
1.38689	1.64615
1.38769	1.64615
1.38930	1.64374
1.38769	1.64454
1.38689	1.64374
1.38930	1.64615
1.39092	1.64696
1.39172	1.65018
1.39253	1.65824
1.39253	1.66388
1.39575	1.67194
1.39736	1.68161
1.40059	1.69531
1.39736	1.70740
1.40059	1.72271
1.40059	1.73802
1.40300	1.75253
1.40542	1.77509
1.40381	1.79927
1.40381	1.82103
1.40381	1.84198
1.40300	1.86535
1.40542	1.89194
1.40462	1.91934
1.40300	1.94755
1.40381	1.97978
1.40381	2.00718
1.40542	2.04022
1.40542	2.07487
1.40462	2.11033
1.40462	2.14740
1.40542	2.18608
1.40542	2.22637
1.40300	2.26425
1.40059	2.30454
1.39978	2.34484
1.39495	2.38352
1.39253	2.42703
1.39253	2.47136
1.39172	2.51165
1.39092	2.55436
1.39011	2.60029
1.39092	2.63736
1.38689	2.67766
1.38286	2.71714
1.38205	2.75502
1.38044	2.79048
1.38125	2.82110
1.37963	2.85656
1.37802	2.88476
1.37883	2.91136
1.37883	2.93714
1.37963	2.95729
1.37883	2.97502
1.37802	2.98872
1.37480	2.99919
1.37480	3.00000
1.37883	3.00000
1.37722	2.99597
1.37560	2.98549
1.37641	2.96535
1.37480	2.94601
1.37722	2.91377
1.37560	2.87751
1.37560	2.83480
1.37560	2.78403
1.37399	2.73004
1.37802	2.67121
1.37560	2.60352
1.37560	2.53179
1.37560	2.45524
1.37641	2.37707
1.37963	2.29487
1.37963	2.21267
1.37963	2.12403
1.38125	2.03780
1.38205	1.95480
1.38689	1.87018
1.38689	1.79040
1.39011	1.70821
1.38850	1.63165
1.39172	1.56718
1.39253	1.50029
1.39333	1.44469
1.39495	1.39634
1.39414	1.35685
1.39817	1.31817
1.40059	1.28593
1.39978	1.26176
1.40220	1.24806
1.40139	1.23436
1.40381	1.22952
1.40623	1.22308
1.40542	1.22308
1.40542	1.22872
1.40462	1.23355
1.40542	1.24081
1.40542	1.25048
1.40300	1.26337
1.39978	1.27626
1.39656	1.28674
1.39736	1.29963
1.39978	1.31172
1.39817	1.32784
1.40542	1.33993
1.41590	1.35685
1.42960	1.36733
1.44330	1.37619
1.45619	1.38828
1.46425	1.39634
1.47231	1.40198
1.47311	1.41004
1.47231	1.41407
1.46505	1.41890
1.45780	1.42454
1.44974	1.42857
1.43927	1.43421
1.43201	1.43744
1.42315	1.43985
1.41751	1.44227
1.40784	1.45114
1.40059	1.45275
1.39333	1.45516
1.38205	1.46403
1.37641	1.46645
1.36593	1.47289
1.35626	1.48015
1.34982	1.48659
1.33934	1.49223
1.32806	1.50352
1.31678	1.50835
1.30630	1.51802
1.29905	1.52447
1.28777	1.53978
1.27648	1.54703
1.27084	1.55912
1.26440	1.56879
1.26198	1.57604
1.25956	1.58894
1.26037	1.59538
1.26359	1.60667
1.26762	1.61473
1.27648	1.62037
1.28374	1.62923
1.29099	1.63487
1.30308	1.64374
1.31436	1.64777
1.32806	1.65018
1.34095	1.65341
1.35143	1.65824
1.36110	1.66066
1.37158	1.66147
1.38447	1.66227
1.39172	1.66388
1.40542	1.66308
1.41267	1.66630
1.42396	1.65985
1.43363	1.66147
1.44168	1.66066
1.44652	1.66308
1.45458	1.66227
1.45941	1.66308
1.46747	1.66147
1.47150	1.65985
1.47553	1.66147
1.48037	1.66147
1.48278	1.66469
1.48278	1.66711
1.48198	1.66711
1.48037	1.67114
1.48037	1.67194
1.47795	1.67436
1.47875	1.67597
1.47714	1.68322
1.47392	1.68645
1.47392	1.69048
1.47231	1.69289
1.46989	1.69531
1.46022	1.69853
1.45700	1.70015
1.45297	1.70740
1.44813	1.70740
1.44571	1.71062
1.43604	1.70982
1.43121	1.71062
1.42799	1.71223
1.41751	1.71223
1.41267	1.71062
1.40542	1.71143
1.40059	1.71062
1.39817	1.71062
1.39495	1.70982
1.38689	1.70579
1.39092	1.70256
1.38850	1.70176
1.38447	1.70015
1.38286	1.69773
1.37963	1.69531
1.37399	1.69451
1.36755	1.68967
1.35385	1.69289
1.34982	1.68967
1.34176	1.69048
1.33289	1.68886
1.32967	1.68886
1.32806	1.68967
1.32242	1.68967
1.32564	1.68967
1.32484	1.69370
1.32403	1.69612
1.32806	1.69773
1.33209	1.69773
1.34015	1.70256
1.34498	1.70901
1.35143	1.71062
1.35546	1.71626
1.36432	1.72110
1.37722	1.72352
1.37963	1.72352
1.38527	1.73077
1.39333	1.73480
1.39656	1.73641
1.40381	1.73883
1.40623	1.74205
1.40784	1.74447
1.41106	1.74527
1.41590	1.74608
1.41751	1.74689
1.41751	1.74527
1.41670	1.74366
1.42073	1.73963
1.41751	1.73883
1.41993	1.73399
1.41751	1.73399
1.41751	1.73158
1.41590	1.72835
1.41590	1.72352
1.41429	1.72271
1.41106	1.71949
1.40784	1.71788
1.40542	1.71304
1.40381	1.71304
1.39978	1.71223
1.39172	1.71062
1.38689	1.71062
1.38205	1.71143
1.37963	1.71223
1.37802	1.71143
1.37480	1.71304
1.37399	1.71626
1.37238	1.72110
1.37238	1.72352
1.37399	1.72432
1.37158	1.72835
1.37238	1.73399
1.37480	1.73963
1.37480	1.74527
1.37963	1.74769
1.37883	1.75092
1.37963	1.75414
1.37963	1.76300
1.37802	1.76542
1.37963	1.76623
1.37963	1.76945
1.37963	1.77348
1.37963	1.77429
1.38044	1.77429
1.38366	1.77106
1.38125	1.77348
1.38366	1.77187
1.38205	1.77267
1.38286	1.76703
1.38286	1.76623
1.38125	1.75736
1.38125	1.75414
1.37963	1.75333
1.38125	1.74930
1.38527	1.74689
1.37963	1.74447
1.37963	1.74205
1.37963	1.73802
1.37883	1.73802
1.38044	1.73480
1.37963	1.73399
1.38044	1.73319
1.38125	1.73560
1.38205	1.73722
1.38205	1.73560
1.37963	1.73802
1.37963	1.74286
1.37560	1.74366
1.37641	1.74769
1.37883	1.74850
1.37802	1.75011
1.37963	1.75656
1.37963	1.76381
1.38044	1.76784
1.38447	1.77267
1.38205	1.77509
1.38366	1.77751
1.38366	1.78073
1.38205	1.78637
1.38689	1.78879
1.38527	1.78960
1.38769	1.79604
1.39011	1.79604
1.39172	1.79524
1.39333	1.79363
1.39253	1.79040
1.39333	1.79363
1.39333	1.79282
1.39575	1.78960
1.39656	1.78718
1.39656	1.78557
1.39978	1.78315
1.40300	1.77912
1.40381	1.77590
1.40542	1.77509
1.40381	1.77429
1.40462	1.77187
1.40542	1.76784
1.40542	1.76864
1.40542	1.76623
1.40542	1.76784
1.40542	1.76623
1.40300	1.76703
1.40381	1.76623
1.40462	1.76623
1.40139	1.76784
1.40300	1.76945
1.39978	1.77348
1.40059	1.77509
1.40139	1.77590
1.40059	1.78234
1.39978	1.78637
1.40059	1.79040
1.40059	1.79282
1.40300	1.79685
1.40139	1.80088
1.40139	1.80330
1.40139	1.80733
1.40139	1.80974
1.40300	1.81377
1.39978	1.81297
1.39656	1.81377
1.39414	1.81458
1.39333	1.81538
1.39333	1.81458
1.39253	1.81377
1.39172	1.81377
1.39253	1.81297
1.39253	1.81136
1.39414	1.80733
1.39414	1.80652
1.39333	1.80249
1.39495	1.80088
1.39656	1.79927
1.39978	1.79524
1.39817	1.79524
1.39897	1.79040
1.40059	1.79040
1.40139	1.78799
1.39978	1.78879
1.39656	1.78960
1.39495	1.78799
1.39414	1.78879
1.39253	1.79201
1.39495	1.79201
1.39253	1.79604
1.39333	1.79846
1.39253	1.80007
1.39333	1.80168
1.39414	1.80330
1.39253	1.81136
1.39172	1.81458
1.39172	1.81861
1.39011	1.82425
1.39253	1.82667
1.39172	1.82989
1.39253	1.83473
1.39253	1.84037
1.39253	1.84117
1.39414	1.84520
1.39253	1.84923
1.39172	1.85004
1.39253	1.85084
1.39092	1.85245
1.39253	1.85165
1.39172	1.85165
1.39172	1.85245
1.39414	1.85004
1.39172	1.84762
1.39253	1.84440
1.39172	1.84198
1.39253	1.83956
1.39253	1.83473
1.39253	1.83473
1.39333	1.82747
1.39253	1.82667
1.39253	1.82667
1.39333	1.82667
1.39253	1.82344
1.39253	1.82264
1.39253	1.82425
1.39253	1.82505
1.39253	1.82344
1.39414	1.82344
1.39575	1.82425
1.39414	1.82667
1.39414	1.83070
1.39333	1.83070
1.39253	1.83795
1.39253	1.84117
1.39172	1.84842
1.38850	1.85245
1.38769	1.85810
1.38527	1.86454
1.38527	1.86615
1.38286	1.87421
1.38366	1.87905
1.38205	1.88227
1.38366	1.88952
1.38366	1.89033
1.38205	1.89839
1.38205	1.90322
1.38125	1.90564
1.38125	1.90403
1.38044	1.90403
1.38125	1.90645
1.38286	1.90806
1.38366	1.90645
1.38125	1.90806
1.38286	1.90484
1.38205	1.90484
1.38366	1.90403
1.38205	1.90322
1.38366	1.89919
1.38447	1.89839
1.38125	1.89839
1.38125	1.89678
1.38125	1.89678
1.37963	1.89597
1.38286	1.89275
1.38205	1.89597
1.38286	1.89839
1.38286	1.89839
1.38366	1.90322
1.38527	1.90403
1.38366	1.90806
1.38527	1.91209
1.38689	1.91692
1.38527	1.92095
